1.0099949999999893, 0.3400040000000075, 0.1100009999999969, -0.13000499999999704, 1-1-2007
0.6999969999999962, -0.13000499999999704, -0.27999900000000366, 0.49000499999999647, 1-2-2007
0.75, 0.49000499999999647, -0.08000099999999577, -0.34999899999999684, 1-3-2007
0.5400010000000037, -0.34999899999999684, 0.47999599999999987, 0.41999799999999254, 1-4-2007
1.0300060000000002, 0.41999799999999254, 0.010002000000000066, 0.08000200000000746, 1-5-2007
0.8099970000000098, 0.08000200000000746, 0.0, 1.139999000000003, 1-6-2007
1.2799989999999895, 1.139999000000003, -0.18000000000000682, 0.8199999999999932, 1-7-2007
1.130004999999997, 0.8199999999999932, 0.0, 0.22000100000001055, 1-8-2007
0.48999799999999993, 0.22000100000001055, 0.010002000000000066, 0.5299989999999895, 1-9-2007
1.009994000000006, 0.5299989999999895, -0.1799999999999926, -1.6400000000000006, 1-10-2007
1.889999000000003, -1.6400000000000006, 0.5, -0.35999999999999943, 1-11-2007
1.110000999999997, -0.35999999999999943, -0.26000299999999754, -0.41999800000000675, 1-12-2007
0.8400039999999933, -0.41999800000000675, 0.010002000000000066, 0.5599980000000073, 1-13-2007
0.75, 0.5599980000000073, -0.010002000000000066, 0.20999899999999627, 1-14-2007
0.7299959999999999, 0.20999899999999627, 0.20999899999999627, -0.75, 1-15-2007
0.9700009999999963, -0.75, -0.22999599999999987, -0.3400039999999933, 1-16-2007
0.9299999999999926, -0.3400039999999933, 0.08000199999999325, 0.1600040000000007, 1-17-2007
0.7299959999999999, 0.1600040000000007, 0.25, 0.04999500000000978, 1-18-2007
0.6399990000000031, 0.04999500000000978, 0.0, 0.620002999999997, 1-19-2007
0.8400039999999933, 0.620002999999997, -0.07000000000000739, 1.5999989999999968, 1-20-2007
1.9700010000000105, 1.5999989999999968, 0.029998000000006186, -0.1399990000000031, 2-1-2007
0.8200000000000074, -0.1399990000000031, -0.33000199999999325, -0.30999700000000985, 2-2-2007
0.7099989999999963, -0.30999700000000985, 0.0, 0.8499980000000136, 2-3-2007
0.9499970000000104, 0.8499980000000136, 0.08000199999999325, 0.3399959999999993, 2-4-2007
0.45999899999999627, 0.3399959999999993, -0.2699960000000061, -0.4700019999999938, 2-5-2007
0.75, -0.4700019999999938, 0.25, 0.05000400000000127, 2-6-2007
0.5999980000000136, 0.05000400000000127, 0.0899959999999993, -0.04000100000000373, 2-7-2007
0.9099959999999925, -0.04000100000000373, 0.42000600000000077, 0.43999499999999614, 2-8-2007
0.7899929999999955, 0.43999499999999614, -0.34999899999999684, 0.15000200000000063, 2-9-2007
0.7300030000000106, 0.15000200000000063, -0.20999899999999627, 0.2799980000000062, 2-10-2007
0.40000100000000316, 0.2799980000000062, 0.1100009999999969, -0.5800020000000075, 2-11-2007
0.9199980000000068, -0.5800020000000075, -0.5400009999999895, 0.5299989999999895, 2-12-2007
1.489998, 0.5299989999999895, -0.11999500000000296, 0.18999500000001035, 2-13-2007
0.6599959999999925, 0.18999500000001035, 0.2300029999999964, -1.0599979999999931, 2-14-2007
1.1999970000000104, -1.0599979999999931, 0.0, 0.29999599999999305, 2-15-2007
0.9399939999999987, 0.29999599999999305, 0.45999899999999627, -0.1999969999999962, 2-16-2007
0.7999949999999956, -0.1999969999999962, -0.4300000000000068, -1.4800039999999939, 2-17-2007
2.730003999999994, -1.4800039999999939, 0.0, 0.1600040000000007, 2-18-2007
1.129997000000003, 0.1600040000000007, -0.5599979999999931, 0.29999599999999305, 2-19-2007
1.760002, 0.29999599999999305, -0.22000099999999634, -0.27999900000000366, 3-1-2007
0.9000010000000032, -0.27999900000000366, 0.0, -0.40000200000000063, 3-2-2007
1.0699999999999932, -0.40000200000000063, 0.3400040000000075, 0.4700019999999938, 3-3-2007
0.9700009999999963, 0.4700019999999938, -0.26000299999999754, -0.1200019999999995, 3-4-2007
0.6400000000000006, -0.1200019999999995, 0.2300029999999964, 0.75, 3-5-2007
1.1499939999999924, 0.75, 0.40000200000000063, 1.0699989999999957, 3-6-2007
1.2600029999999975, 1.0699989999999957, -0.16999799999999254, 0.9099959999999925, 3-7-2007
1.2599949999999893, 0.9099959999999925, 0.09000400000000752, -1.0, 3-8-2007
1.9599989999999963, -1.0, 0.15999599999999248, 0.3000030000000038, 3-9-2007
1.5500030000000038, 0.3000030000000038, 0.049995999999993046, 0.6700050000000033, 3-10-2007
1.0699999999999932, 0.6700050000000033, -0.020004000000000133, 0.08000200000000746, 3-11-2007
1.1600040000000007, 0.08000200000000746, 0.0, 1.2699969999999894, 3-12-2007
1.510002, 1.2699969999999894, 0.1900020000000069, 0.7200009999999963, 3-13-2007
0.9599989999999963, 0.7200009999999963, -0.34999799999999937, 1.2699960000000061, 3-14-2007
1.5800019999999932, 1.2699960000000061, 0.010002999999997542, -0.2700049999999976, 3-15-2007
0.5, -0.2700049999999976, -0.25999400000000605, 0.6599960000000067, 3-16-2007
0.8900000000000006, 0.6599960000000067, -0.04999600000000726, 0.05999800000000732, 3-17-2007
1.260002, 0.05999800000000732, -0.5400010000000037, -0.16999800000000675, 3-18-2007
0.6999969999999962, -0.16999800000000675, -0.09999899999999684, -0.7900009999999895, 3-19-2007
1.0500029999999896, -0.7900009999999895, 0.5400009999999895, -0.6200019999999995, 3-20-2007
1.4500050000000044, -0.6200019999999995, -0.06999999999999318, -0.23000300000001062, 3-21-2007
1.5299990000000037, -0.23000300000001062, 0.0, 0.2799980000000062, 3-22-2007
0.7799989999999895, 0.2799980000000062, 0.25, 0.3600009999999969, 4-1-2007
1.0400009999999895, 0.3600009999999969, 0.0, 0.12000299999999697, 4-2-2007
0.5599979999999931, 0.12000299999999697, -0.2900009999999895, 0.02999899999998945, 4-3-2007
0.4300000000000068, 0.02999899999998945, 0.7099990000000105, 0.04000099999998952, 4-4-2007
1.3300020000000075, 0.04000099999998952, -0.1999969999999962, -0.7200019999999938, 4-5-2007
1.0600060000000013, -0.7200019999999938, 0.20999899999999627, -0.5400000000000063, 4-6-2007
0.9199980000000068, -0.5400000000000063, 0.06000500000000386, 0.7399979999999999, 4-7-2007
1.16999899999999, 0.7399979999999999, -0.010002999999997542, -0.34999799999999937, 4-8-2007
0.619995000000003, -0.34999799999999937, 0.27999900000000366, 0.8300019999999932, 4-9-2007
1.0400000000000063, 0.8300019999999932, -0.12000299999999697, -1.2099989999999963, 4-10-2007
1.25, -1.2099989999999963, 0.0, 0.1399990000000031, 4-11-2007
0.8400039999999933, 0.1399990000000031, 0.5999989999999968, 3.9800029999999964, 4-12-2007
4.970000999999996, 3.9800029999999964, 0.06999999999999318, -0.3199999999999932, 4-13-2007
0.8499989999999968, -0.3199999999999932, -0.3399959999999993, 0.1099930000000029, 4-14-2007
0.6899949999999961, 0.1099930000000029, -0.19999700000001042, -0.5899969999999968, 4-15-2007
1.260002, -0.5899969999999968, 0.07000000000000739, 0.6799999999999926, 4-16-2007
0.7699969999999894, 0.6799999999999926, -0.3700019999999995, -0.20999899999999627, 4-17-2007
0.8300020000000075, -0.20999899999999627, 0.010002000000000066, 0.30999699999999564, 4-18-2007
1.1800010000000043, 0.30999699999999564, 0.0, -1.130004999999997, 4-19-2007
1.1999970000000104, -1.130004999999997, 0.020004999999997608, -0.34999899999999684, 4-20-2007
0.8299939999999992, -0.34999899999999684, -0.09999799999999937, 0.8599930000000029, 5-1-2007
1.2999949999999956, 0.8599930000000029, -0.07000000000000739, 1.0700000000000074, 5-2-2007
1.0900040000000075, 1.0700000000000074, -0.02999900000000366, -0.18999499999999614, 5-3-2007
0.8600009999999969, -0.18999499999999614, 0.1999969999999962, 0.8000030000000038, 5-4-2007
1.0200049999999976, 0.8000030000000038, -0.6399990000000031, -0.31000600000000134, 5-5-2007
0.75, -0.31000600000000134, -0.09999799999999937, 0.870002999999997, 5-6-2007
0.9300009999999901, 0.870002999999997, -0.5500030000000038, -0.7300039999999939, 5-7-2007
1.25, -0.7300039999999939, 0.19000300000000436, 0.10999999999999943, 5-8-2007
0.7600029999999975, 0.10999999999999943, -0.1599960000000067, 0.009995000000003529, 5-9-2007
0.8700020000000137, 0.009995000000003529, 0.29000100000000373, -0.09999899999999684, 5-10-2007
1.109993000000003, -0.09999899999999684, 0.12000299999999697, 0.20999899999999627, 5-11-2007
0.8300019999999932, 0.20999899999999627, -0.09999799999999937, 0.5899959999999993, 5-12-2007
0.7999949999999956, 0.5899959999999993, 0.5599979999999931, 1.75, 5-13-2007
3.2000050000000044, 1.75, -0.7299959999999999, 0.8899990000000031, 5-14-2007
1.7300039999999939, 0.8899990000000031, -0.3400039999999933, 0.25, 5-15-2007
0.7099989999999963, 0.25, 0.0, -0.5199960000000061, 5-16-2007
1.3199989999999957, -0.5199960000000061, -0.48999799999999993, -0.31000500000000386, 5-17-2007
0.9600059999999928, -0.31000500000000386, 0.10000600000000759, 0.4499969999999962, 5-18-2007
0.6700050000000033, 0.4499969999999962, -0.1100009999999969, -0.5999979999999994, 5-19-2007
1.0999989999999968, -0.5999979999999994, -0.30000400000000127, 0.9100040000000007, 5-20-2007
1.5400010000000037, 0.9100040000000007, -0.09999799999999937, -0.7200019999999938, 5-21-2007
0.9199979999999925, -0.7200019999999938, 0.0, 0.18000099999999009, 5-22-2007
1.0599979999999931, 0.18000099999999009, -0.39000000000000057, 0.22999599999999987, 6-1-2007
0.880004999999997, 0.22999599999999987, -0.3600009999999969, 0.5, 6-2-2007
0.7299959999999999, 0.5, 0.010002999999997542, -0.5900039999999933, 6-3-2007
0.8600009999999969, -0.5900039999999933, -0.4699939999999998, -1.510002, 6-4-2007
1.9799959999999999, -1.510002, 0.010002000000000066, 0.41999799999999254, 6-5-2007
1.1599959999999925, 0.41999799999999254, -0.27000400000000013, 0.26000200000000007, 6-6-2007
1.010002, 0.26000200000000007, 0.0, -1.260002, 6-7-2007
1.3199999999999932, -1.260002, 0.5800020000000075, 0.7000039999999927, 6-8-2007
1.130004999999997, 0.7000039999999927, -0.15000100000000316, 0.43999500000001035, 6-9-2007
0.8200000000000074, 0.43999500000001035, 0.9800029999999964, -0.5199970000000036, 6-10-2007
1.0, -0.5199970000000036, 0.04999600000000726, -0.22000100000001055, 6-11-2007
0.8899990000000031, -0.22000100000001055, -0.45999999999999375, 0.45999999999999375, 6-12-2007
0.8500059999999934, 0.45999999999999375, 0.20000400000000695, -0.8000030000000038, 6-13-2007
1.3400040000000075, -0.8000030000000038, -0.019996999999989384, 0.41999899999999, 6-14-2007
1.3399959999999993, 0.41999899999999, -0.4300009999999901, -0.5999980000000136, 6-15-2007
1.3499989999999968, -0.5999980000000136, 0.08999600000001351, 0.15000199999998642, 6-16-2007
1.0599969999999956, 0.15000199999998642, 0.5299980000000062, -0.45999899999999627, 6-17-2007
1.2099989999999963, -0.45999899999999627, -0.6099999999999994, 2.0299989999999895, 6-18-2007
2.190002000000007, 2.0299989999999895, -0.3799979999999863, -0.3899990000000031, 6-19-2007
0.6900020000000069, -0.3899990000000031, 0.29999499999999557, 1.2700049999999976, 6-20-2007
2.2200009999999963, 1.2700049999999976, 0.5, 0.3399959999999993, 6-21-2007
0.8000040000000013, 0.3399959999999993, -0.09999899999999684, -0.3199989999999957, 7-1-2007
0.47999599999999987, -0.3199989999999957, 0.0, 0.9000010000000032, 7-2-2007
1.239998, 0.9000010000000032, -0.4300000000000068, 0.050003000000003794, 7-3-2007
0.45000400000000695, 0.050003000000003794, 0.18999499999999614, 0.6399990000000031, 7-4-2007
0.8599999999999994, 0.6399990000000031, -0.5299990000000037, -0.6399990000000031, 7-5-2007
0.9900050000000107, -0.6399990000000031, 0.0, 0.23999799999999993, 7-6-2007
0.7799980000000062, 0.23999799999999993, 0.18000000000000682, 1.2099989999999963, 7-7-2007
1.389999000000003, 1.2099989999999963, -0.3999939999999924, 0.8699959999999862, 7-8-2007
1.1900020000000069, 0.8699959999999862, -0.3099979999999931, 0.20999899999999627, 7-9-2007
1.2200009999999963, 0.20999899999999627, 0.5599980000000073, 1.3199989999999957, 7-10-2007
1.4599989999999963, 1.3199989999999957, -0.9699930000000023, 0.7999950000000098, 7-11-2007
1.889999000000003, 0.7999950000000098, -2.769996000000006, 2.8499979999999994, 7-12-2007
3.7900010000000037, 2.8499979999999994, 0.75, -0.629997000000003, 7-13-2007
1.5199969999999894, -0.629997000000003, 0.14999400000000662, 1.4299999999999926, 7-14-2007
2.119995000000003, 1.4299999999999926, -1.0299989999999895, 0.02999899999998945, 7-15-2007
1.620002999999997, 0.02999899999998945, 0.45000500000000443, -1.3100060000000013, 7-16-2007
2.2799989999999895, -1.3100060000000013, -0.869995000000003, -1.7700040000000001, 7-17-2007
3.1500020000000006, -1.7700040000000001, -0.04999499999999557, -1.5999989999999968, 7-18-2007
2.629997000000003, -1.5999989999999968, -0.050003000000003794, 1.3399959999999993, 7-19-2007
1.9100040000000007, 1.3399959999999993, 0.3000030000000038, -1.3700019999999995, 7-20-2007
2.1199959999999862, -1.3700019999999995, 0.1799999999999926, 2.4900050000000107, 7-21-2007
3.4799950000000024, 2.4900050000000107, 0.08999699999999677, -0.47000100000001055, 8-1-2007
1.610000999999997, -0.47000100000001055, 0.23000300000001062, -2.510002, 8-2-2007
2.870002999999997, -2.510002, 0.5999979999999994, 1.18000099999999, 8-3-2007
2.7900009999999895, 1.18000099999999, -0.799995999999993, 0.40000200000000063, 8-4-2007
2.060005000000004, 0.40000200000000063, -0.0700080000000014, -1.0899959999999993, 8-5-2007
1.9700019999999938, -1.0899959999999993, -1.7699970000000036, -2.5400009999999895, 8-6-2007
3.229996, -2.5400009999999895, -0.4900050000000107, 2.75, 8-7-2007
4.05000299999999, 2.75, 0.5500030000000038, 0.2699970000000036, 8-8-2007
1.5599979999999931, 0.2699970000000036, 0.38000499999999704, -3.370002999999997, 8-9-2007
3.5699989999999957, -3.370002999999997, -0.27999900000000366, -1.4300000000000068, 8-10-2007
2.299995999999993, -1.4300000000000068, -0.3399969999999968, 1.119995000000003, 8-11-2007
4.190002000000007, 1.119995000000003, 2.5, -1.4799950000000024, 8-12-2007
2.8600000000000136, -1.4799950000000024, 0.2299950000000024, 0.7799990000000037, 8-13-2007
1.1999969999999962, 0.7799990000000037, 0.47000099999999634, -0.9799950000000024, 8-14-2007
1.4199980000000068, -0.9799950000000024, 0.509994000000006, -0.20999899999999627, 8-15-2007
1.3099979999999931, -0.20999899999999627, 0.1799999999999926, -0.5699989999999957, 8-16-2007
1.7799990000000037, -0.5699989999999957, -0.27999900000000366, 1.5, 8-17-2007
1.6600040000000007, 1.5, -0.27999900000000366, -0.47000099999999634, 8-18-2007
0.8400039999999933, -0.47000099999999634, -0.3000030000000038, -1.6699979999999925, 8-19-2007
2.010002, -1.6699979999999925, 0.6600030000000032, 1.4499969999999962, 8-20-2007
1.7700040000000001, 1.4499969999999962, -0.7900010000000037, 0.9000020000000006, 8-21-2007
1.31999900000001, 0.9000020000000006, 0.9000020000000006, -1.0500040000000013, 8-22-2007
1.739998, -1.0500040000000013, 0.30000400000000127, -0.020004999999997608, 8-23-2007
1.239998, -0.020004999999997608, -0.7399979999999999, 0.08000199999999325, 9-1-2007
1.2099989999999963, 0.08000199999999325, 0.379997000000003, 0.45999999999999375, 9-2-2007
1.4599990000000105, 0.45999999999999375, -0.8600009999999969, -1.8499989999999968, 9-3-2007
2.0799939999999992, -1.8499989999999968, 0.26000299999999754, 0.010002000000000066, 9-4-2007
1.6600040000000007, 0.010002000000000066, 0.4799950000000024, 0.7000050000000044, 9-5-2007
1.0, 0.7000050000000044, -0.10000600000000759, 2.050003000000004, 9-6-2007
2.5399929999999955, 2.050003000000004, 0.8600009999999969, -0.34999899999999684, 9-7-2007
1.0300069999999977, -0.34999899999999684, -0.1900020000000069, -0.9800039999999939, 9-8-2007
1.609993000000003, -0.9800039999999939, -0.1399990000000031, -0.02999899999998945, 9-9-2007
0.9099960000000067, -0.02999899999998945, 0.4299999999999926, 1.5999989999999968, 9-10-2007
2.449996999999996, 1.5999989999999968, 0.7900010000000037, 0.8899990000000031, 9-11-2007
1.75, 0.8899990000000031, -0.16999800000000675, -2.0499949999999956, 9-12-2007
2.2100070000000045, -2.0499949999999956, 0.5299980000000062, -0.6900020000000069, 9-13-2007
1.2900010000000037, -0.6900020000000069, 0.3000030000000038, -0.7100070000000045, 9-14-2007
1.4400030000000044, -0.7100070000000045, -0.039992999999995504, 0.619995000000003, 9-15-2007
1.2900010000000037, 0.619995000000003, 0.3000029999999896, 0.12999700000000303, 9-16-2007
1.1799999999999926, 0.12999700000000303, 0.20000500000000443, 0.3600009999999969, 9-17-2007
1.620002999999997, 0.3600009999999969, -0.3500060000000076, -0.2599949999999893, 9-18-2007
0.8900069999999971, -0.2599949999999893, -0.010002000000000066, 1.370002999999997, 9-19-2007
1.75, 1.370002999999997, -0.4300010000000043, -0.2300029999999964, 10-1-2007
1.0999979999999994, -0.2300029999999964, -0.4499969999999962, 0.47999599999999987, 10-2-2007
1.0299990000000037, 0.47999599999999987, 0.13000499999999704, 0.45999899999999627, 10-3-2007
1.4700010000000105, 0.45999899999999627, 0.8299939999999992, 0.8300020000000075, 10-4-2007
1.5999979999999994, 0.8300020000000075, -0.4300010000000043, -0.6500010000000032, 10-5-2007
1.489998, -0.6500010000000032, 0.06000500000000386, 0.6699980000000068, 10-6-2007
1.2099989999999963, 0.6699980000000068, -0.01999600000000612, 0.09999799999999937, 10-7-2007
1.3000030000000038, 0.09999799999999937, 0.379997000000003, -0.5, 10-8-2007
1.950004000000007, -0.5, 0.3600009999999969, 0.5599979999999931, 10-9-2007
1.1000059999999934, 0.5599979999999931, 0.20000400000000695, -1.2799990000000037, 10-10-2007
2.5799939999999992, -1.2799990000000037, -0.09000399999999331, 0.6800009999999901, 10-11-2007
1.489998, 0.6800009999999901, 0.4300000000000068, -1.3000030000000038, 10-12-2007
2.4700009999999963, -1.3000030000000038, -1.6999969999999962, -0.629997000000003, 10-13-2007
2.319999999999993, -0.629997000000003, -0.26000200000000007, -0.9599989999999963, 10-14-2007
1.4299999999999926, -0.9599989999999963, -0.7099999999999937, 1.0299989999999895, 10-15-2007
1.549995999999993, 1.0299989999999895, 0.629997000000003, -0.3199989999999957, 10-16-2007
1.549995999999993, -0.3199989999999957, -0.29000100000000373, 0.020004000000000133, 10-17-2007
0.9799959999999999, 0.020004000000000133, 0.12999700000000303, -1.1999969999999962, 10-18-2007
1.9499969999999962, -1.1999969999999962, 0.6999969999999962, -0.5999979999999994, 10-19-2007
0.8899990000000031, -0.5999979999999994, 0.45999899999999627, 0.08000199999999325, 10-20-2007
0.6699990000000042, 0.08000199999999325, -0.20999899999999627, -1.0300069999999977, 10-21-2007
1.359993000000003, -1.0300069999999977, 0.4100040000000007, 1.489998, 10-22-2007
1.9599989999999963, 1.489998, -0.23999799999999993, -1.5400010000000037, 10-23-2007
1.6999969999999962, -1.5400010000000037, 0.9700010000000105, -0.6500010000000032, 11-1-2007
1.5500030000000038, -0.6500010000000032, -0.29000100000000373, -0.5199970000000036, 11-2-2007
1.3300019999999932, -0.5199970000000036, 0.5299990000000037, 0.7300029999999964, 11-3-2007
1.8999940000000066, 0.7300029999999964, -0.9299999999999926, -2.3200000000000074, 11-4-2007
2.3999940000000066, -2.3200000000000074, 0.05999800000000732, 1.0899959999999993, 11-5-2007
2.0800020000000075, 1.0899959999999993, -1.0, -1.3599999999999994, 11-6-2007
1.6900030000000044, -1.3599999999999994, -0.25999500000000353, -0.5200040000000001, 11-7-2007
1.4300010000000043, -0.5200040000000001, 0.7799990000000037, -0.6699990000000042, 11-8-2007
1.3000030000000038, -0.6699990000000042, 0.5500040000000013, -1.0700000000000074, 11-9-2007
1.139999000000003, -1.0700000000000074, -0.27999899999998945, -0.4400020000000069, 11-10-2007
2.0500040000000013, -0.4400020000000069, 0.3199990000000099, -0.8899990000000031, 11-11-2007
1.9700009999999963, -0.8899990000000031, -0.1600040000000007, -1.1999969999999962, 11-12-2007
1.5900040000000075, -1.1999969999999962, -0.029998000000006186, 0.8499979999999994, 11-13-2007
1.6700060000000008, 0.8499979999999994, -0.879997000000003, 0.04000100000000373, 11-14-2007
1.0700000000000074, 0.04000100000000373, 0.5599969999999956, 0.5299990000000037, 11-15-2007
1.2100070000000045, 0.5299990000000037, -0.050003000000003794, -0.4499969999999962, 11-16-2007
2.219994, -0.4499969999999962, 0.20999899999999627, -0.20999899999999627, 11-17-2007
1.8899999999999864, -0.20999899999999627, 0.06999999999999318, 2.56999900000001, 11-18-2007
2.5800020000000075, 2.56999900000001, -0.35999999999999943, 0.13000499999999704, 11-19-2007
2.510002, 0.13000499999999704, 0.6799919999999986, -0.4499969999999962, 11-20-2007
1.4399939999999987, -0.4499969999999962, -0.4799950000000024, 0.2699960000000061, 11-21-2007
0.9600070000000045, 0.2699960000000061, -0.2699960000000061, -0.09000400000000752, 12-1-2007
0.9500050000000044, -0.09000400000000752, 0.7699960000000061, -0.0699989999999957, 12-2-2007
0.5399929999999955, -0.0699989999999957, -0.019997000000003595, 0.25, 12-3-2007
0.9100040000000007, 0.25, 0.5500030000000038, 0.7299959999999999, 12-4-2007
1.4100040000000007, 0.7299959999999999, 0.5299989999999895, 0.04000000000000625, 12-5-2007
0.8600009999999969, 0.04000000000000625, 0.07000000000000739, -2.379997000000003, 12-6-2007
2.5199969999999894, -2.379997000000003, 1.4000010000000032, -0.33000100000001, 12-7-2007
1.8000030000000038, -0.33000100000001, 0.029998000000006186, 0.8600009999999969, 12-8-2007
1.4599989999999963, 0.8600009999999969, -1.110000999999997, 0.010002999999997542, 12-9-2007
1.0500030000000038, 0.010002999999997542, 0.05999699999999564, -1.4599989999999963, 12-10-2007
1.5799939999999992, -1.4599989999999963, 0.8000030000000038, 0.6499939999999924, 12-11-2007
1.6999970000000104, 0.6499939999999924, 0.5, -1.2599949999999893, 12-12-2007
1.629997000000003, -1.2599949999999893, 0.4099959999999925, 0.7099999999999937, 12-13-2007
1.370002999999997, 0.7099999999999937, 0.6800000000000068, 1.2300029999999964, 12-14-2007
2.18000099999999, 1.2300029999999964, 0.010002000000000066, 0.07000000000000739, 12-15-2007
0.6999969999999962, 0.07000000000000739, -0.23000300000001062, 0.29000100000000373, 12-16-2007
1.0599979999999931, 0.29000100000000373, -3.110000999999997, 1.8499979999999994, 12-17-2007
2.239998, 1.8499979999999994, 0.7300039999999939, -0.9000019999999864, 12-18-2007
1.4599990000000105, -0.9000019999999864, -0.050003000000003794, -0.14999400000000662, 12-19-2007
