4.260002, -1.1500010000000032, 1.0600010000000069, -1.0200000000000031, 1-1-2007
2.110000999999997, -1.0200000000000031, 0.5999979999999994, 1.380001, 1-2-2007
2.0999979999999994, 1.380001, 1.1800009999999972, -1.610000999999997, 1-3-2007
2.7099990000000034, -1.610000999999997, -1.25, 0.4500010000000003, 1-4-2007
1.7700000000000031, 0.4500010000000003, -0.20000100000000032, -0.2700000000000031, 1-5-2007
1.5900009999999938, -0.2700000000000031, 1.0900000000000034, -2.110000999999997, 1-6-2007
2.370002999999997, -2.110000999999997, 0.04000099999999662, 2.2799989999999966, 1-7-2007
2.4599990000000034, 2.2799989999999966, -0.1599999999999966, -0.09000000000000341, 1-8-2007
1.5800020000000004, -0.09000000000000341, -0.11999899999999997, 0.25999800000000306, 1-9-2007
1.0799980000000033, 0.25999800000000306, 0.3400000000000034, -0.8099970000000027, 1-10-2007
1.5, -0.8099970000000027, 0.7000010000000003, 2.3300009999999958, 1-11-2007
2.740001999999997, 2.3300009999999958, 0.7699970000000036, -0.5699999999999932, 1-12-2007
2.0799939999999992, -0.5699999999999932, 0.6399999999999864, 1.9199980000000068, 1-13-2007
2.5800019999999932, 1.9199980000000068, -0.6599960000000067, 0.5299990000000037, 1-14-2007
1.7200019999999938, 0.5299990000000037, -0.2700049999999976, -2.129997000000003, 1-15-2007
2.3099969999999956, -2.129997000000003, 0.6399990000000031, -0.029998000000006186, 1-16-2007
1.1800010000000043, -0.029998000000006186, 0.5999980000000136, -1.139999000000003, 1-17-2007
2.5400010000000037, -1.139999000000003, 0.0, 3.0299989999999895, 1-18-2007
3.4400019999999927, 3.0299989999999895, -1.360000999999997, 2.430000000000007, 1-19-2007
3.4199980000000068, 2.430000000000007, 0.370002999999997, 0.0899959999999993, 1-20-2007
1.8499989999999968, 0.0899959999999993, -0.16999799999999254, -0.7299959999999999, 2-1-2007
1.5, -0.7299959999999999, 0.16999899999999002, -0.9100040000000007, 2-2-2007
1.879997000000003, -0.9100040000000007, 0.9600070000000045, -1.7700049999999976, 2-3-2007
2.239998, -1.7700049999999976, 0.010002999999997542, -0.5999989999999968, 2-4-2007
1.75, -0.5999989999999968, 0.0, 0.05999799999999311, 2-5-2007
1.25, 0.05999799999999311, 0.2299950000000024, -0.2699960000000061, 2-6-2007
1.3400039999999933, -0.2699960000000061, -0.9000019999999864, -0.629997000000003, 2-7-2007
1.760002, -0.629997000000003, 0.9499969999999962, -0.22000099999999634, 2-8-2007
1.0899960000000135, -0.22000099999999634, 0.22000099999999634, 0.13000499999999704, 2-9-2007
1.0700000000000074, 0.13000499999999704, -0.3199999999999932, -0.010002000000000066, 2-10-2007
1.389999000000003, -0.010002000000000066, 0.15000100000000316, 1.0599979999999931, 2-11-2007
1.619995000000003, 1.0599979999999931, -0.5999979999999994, 0.0, 2-12-2007
0.620002999999997, 0.0, 0.20999899999999627, 0.6900020000000069, 2-13-2007
1.8000030000000038, 0.6900020000000069, 0.41999799999999254, 0.7900010000000037, 2-14-2007
1.4700010000000105, 0.7900010000000037, 0.5, -1.1500010000000032, 2-15-2007
1.7099990000000105, -1.1500010000000032, 0.5400010000000037, 1.1799999999999926, 2-16-2007
1.4800029999999964, 1.1799999999999926, -1.610000999999997, -0.370002999999997, 2-17-2007
3.069999999999993, -0.370002999999997, 0.1600040000000007, -0.020004000000000133, 2-18-2007
1.639999000000003, -0.020004000000000133, -1.369995000000003, 0.6800000000000068, 2-19-2007
1.9700010000000105, 0.6800000000000068, -0.2100070000000045, -0.9199979999999925, 3-1-2007
1.5200040000000001, -0.9199979999999925, -1.1500010000000032, 0.0300060000000002, 3-2-2007
1.8499979999999994, 0.0300060000000002, 0.7999949999999956, 0.5999989999999968, 3-3-2007
0.9799959999999999, 0.5999989999999968, -0.019996999999989384, 1.0299989999999895, 3-4-2007
2.4700010000000105, 1.0299989999999895, 0.3400040000000075, -0.5800020000000075, 3-5-2007
1.3499979999999994, -0.5800020000000075, 0.41999800000000675, -0.4799950000000024, 3-6-2007
1.2300029999999964, -0.4799950000000024, -0.5200049999999976, -0.2699960000000061, 3-7-2007
0.7300029999999964, -0.2699960000000061, -0.04000100000000373, -0.20999899999999627, 3-8-2007
2.3399969999999968, -0.20999899999999627, 0.5799939999999992, 0.9400020000000069, 3-9-2007
1.8100060000000013, 0.9400020000000069, -0.1900020000000069, -0.4699939999999998, 3-10-2007
1.0499949999999956, -0.4699939999999998, 0.16999900000000423, -1.2600029999999975, 3-11-2007
1.75, -1.2600029999999975, 0.8000030000000038, 0.3399969999999968, 3-12-2007
0.9099960000000067, 0.3399969999999968, 0.5200040000000001, 0.629997000000003, 3-13-2007
1.2799990000000037, 0.629997000000003, 0.3099979999999931, 1.4800029999999964, 3-14-2007
1.9499969999999962, 1.4800029999999964, 0.7799990000000037, 0.6999969999999962, 3-15-2007
1.6400000000000006, 0.6999969999999962, 0.06000500000000386, 0.18999499999999614, 3-16-2007
0.9800039999999939, 0.18999499999999614, 0.5400010000000037, 0.49000499999999647, 3-17-2007
1.7900000000000063, 0.49000499999999647, -0.45000399999999274, -0.05999800000000732, 3-18-2007
1.1599960000000067, -0.05999800000000732, 1.0299990000000037, -1.3300019999999932, 3-19-2007
1.989998, -1.3300019999999932, 0.5800019999999932, -0.379997000000003, 3-20-2007
1.0500040000000013, -0.379997000000003, 0.0899959999999993, -0.620002999999997, 3-21-2007
0.9599989999999963, -0.620002999999997, 0.1400069999999971, 1.119995000000003, 3-22-2007
1.4500050000000044, 1.119995000000003, -0.8499979999999994, 1.3199999999999932, 4-1-2007
1.9199979999999925, 1.3199999999999932, -0.5299989999999895, 1.610000999999997, 4-2-2007
2.1799999999999926, 1.610000999999997, -0.09999899999999684, 0.6999969999999962, 4-3-2007
1.1900020000000069, 0.6999969999999962, 0.09999799999999937, -0.45999899999999627, 4-4-2007
1.75, -0.45999899999999627, 0.20999899999999627, 1.3100060000000013, 4-5-2007
1.6000060000000076, 1.3100060000000013, -1.7200019999999938, 1.0199969999999894, 4-6-2007
2.0099949999999893, 1.0199969999999894, 0.6100009999999969, 1.3400040000000075, 4-7-2007
1.8399960000000135, 1.3400040000000075, -0.1800010000000043, 0.0, 4-8-2007
1.0899959999999993, 0.0, -0.15000100000000316, 0.5199960000000061, 4-9-2007
1.860000999999997, 0.5199960000000061, 0.15000200000000063, -1.5899959999999993, 4-10-2007
2.129997000000003, -1.5899959999999993, -0.33000200000000746, -0.9299999999999926, 4-11-2007
1.0800019999999932, -0.9299999999999926, -0.26000299999999754, -0.9099960000000067, 4-12-2007
1.3499979999999994, -0.9099960000000067, 0.09999899999999684, 0.40000100000000316, 4-13-2007
1.370002999999997, 0.40000100000000316, -1.1200019999999995, 1.3499979999999994, 4-14-2007
1.7200010000000105, 1.3499979999999994, 0.15000200000000063, 0.029998000000006186, 4-15-2007
0.7900009999999895, 0.029998000000006186, 0.3600009999999969, 0.6500020000000006, 4-16-2007
1.509994000000006, 0.6500020000000006, -0.5, -0.40000200000000063, 4-17-2007
1.25, -0.40000200000000063, -0.34999799999999937, 0.09999799999999937, 4-18-2007
1.1699979999999925, 0.09999799999999937, -0.12000299999999697, -0.6899949999999961, 4-19-2007
1.7799989999999895, -0.6899949999999961, 1.2900009999999895, 1.0499960000000073, 4-20-2007
3.5199969999999894, 1.0499960000000073, 0.1399990000000031, 1.490005999999994, 5-1-2007
1.9000010000000032, 1.490005999999994, -0.1400069999999971, 0.75, 5-2-2007
1.5400010000000037, 0.75, 0.10999999999999943, -1.2099989999999963, 5-3-2007
2.0, -1.2099989999999963, -0.2999950000000098, 0.509994000000006, 5-4-2007
1.0200040000000001, 0.509994000000006, -0.509994000000006, 0.12999700000000303, 5-5-2007
1.8799979999999863, 0.12999700000000303, -0.05999799999999311, -0.75, 5-6-2007
1.6099999999999994, -0.75, -0.20999900000001048, -1.1900019999999927, 5-7-2007
2.0799939999999992, -1.1900019999999927, 1.0, 0.370002999999997, 5-8-2007
1.4000010000000032, 0.370002999999997, 0.2299950000000024, 0.9700019999999938, 5-9-2007
1.5900040000000075, 0.9700019999999938, -0.3000030000000038, -1.0099949999999893, 5-10-2007
1.700004000000007, -1.0099949999999893, 0.25, -0.40000100000000316, 5-11-2007
1.6700060000000008, -0.40000100000000316, 0.15000100000000316, 0.8999939999999924, 5-12-2007
2.5199969999999894, 0.8999939999999924, -1.1499939999999924, 2.9199979999999925, 5-13-2007
3.0399929999999955, 2.9199979999999925, 0.26000200000000007, -0.20000399999999274, 5-14-2007
1.379997000000003, -0.20000399999999274, 0.0, -1.0, 5-15-2007
1.6700060000000008, -1.0, -0.12999700000000303, 0.11999500000000296, 5-16-2007
1.880004999999997, 0.11999500000000296, 1.4700009999999963, -3.1699980000000068, 5-17-2007
3.639999000000003, -3.1699980000000068, 0.9800030000000106, -0.1900020000000069, 5-18-2007
1.4599989999999963, -0.1900020000000069, -0.20999899999999627, -0.5700000000000074, 5-19-2007
1.75, -0.5700000000000074, 1.6699980000000068, 0.22000099999999634, 5-20-2007
2.480003999999994, 0.22000099999999634, 0.5999989999999968, -1.4199979999999925, 5-21-2007
1.739998, -1.4199979999999925, 1.010002, -0.7700049999999976, 5-22-2007
1.3199999999999932, -0.7700049999999976, -0.5199960000000061, 2.2900010000000037, 6-1-2007
2.5800009999999958, 2.2900010000000037, -0.7100070000000045, -0.2599949999999893, 6-2-2007
1.0800020000000075, -0.2599949999999893, 1.239998, -2.739998, 6-3-2007
3.180000000000007, -2.739998, -0.36000000000001364, -1.1900029999999902, 6-4-2007
2.8999939999999924, -1.1900029999999902, -0.75, 1.1999969999999962, 6-5-2007
1.9699930000000023, 1.1999969999999962, -0.039992999999995504, 0.3600009999999969, 6-6-2007
1.5600050000000039, 0.3600009999999969, 0.0, 0.1499939999999924, 6-7-2007
2.1700050000000033, 0.1499939999999924, 0.29000000000000625, 1.3499989999999968, 6-8-2007
1.629997000000003, 1.3499989999999968, 0.1600040000000007, 2.400001000000003, 6-9-2007
2.7200009999999963, 2.400001000000003, 0.27999900000000366, 0.1999969999999962, 6-10-2007
1.4000010000000032, 0.1999969999999962, 0.9000010000000032, -1.129997000000003, 6-11-2007
1.379997000000003, -1.129997000000003, -0.31000500000000386, -0.5, 6-12-2007
0.8599999999999994, -0.5, 0.25, -2.9199979999999925, 6-13-2007
3.7900010000000037, -2.9199979999999925, 1.0599969999999956, 1.0600060000000013, 6-14-2007
1.9200050000000033, 1.0600060000000013, -0.8000040000000013, -1.4799950000000024, 6-15-2007
3.2200009999999963, -1.4799950000000024, -1.4100040000000007, -0.7799989999999895, 6-16-2007
1.8199999999999932, -0.7799989999999895, 1.4800039999999939, -3.25, 6-17-2007
3.940002000000007, -3.25, -1.1000060000000076, 2.300003000000004, 6-18-2007
2.5899960000000135, 2.300003000000004, 0.26000200000000007, -1.6700060000000008, 6-19-2007
2.9799950000000024, -1.6700060000000008, -0.23999799999999993, 0.8499989999999968, 6-20-2007
2.489998, 0.8499989999999968, 0.36000000000001364, 0.7099989999999963, 6-21-2007
1.5400010000000037, 0.7099989999999963, -1.629997000000003, 2.180000000000007, 7-1-2007
2.760002, 2.180000000000007, -0.6800000000000068, 0.6600040000000007, 7-2-2007
1.5099949999999893, 0.6600040000000007, 0.8399959999999993, -0.5599979999999931, 7-3-2007
1.1800000000000068, -0.5599979999999931, -0.4100030000000032, 0.04000099999998952, 7-4-2007
1.4400020000000069, 0.04000099999998952, -0.5100020000000001, 0.10000600000000759, 7-5-2007
1.639999000000003, 0.10000600000000759, -1.010002, 1.2699960000000061, 7-6-2007
1.4199979999999925, 1.2699960000000061, 0.5600049999999896, -0.3900069999999971, 7-7-2007
1.6099999999999994, -0.3900069999999971, -0.509994000000006, 0.8300020000000075, 7-8-2007
1.9499969999999962, 0.8300020000000075, -0.2800069999999977, -1.5799939999999992, 7-9-2007
2.75, -1.5799939999999992, 0.6899949999999961, -1.049995999999993, 7-10-2007
1.8199989999999957, -1.049995999999993, -0.4599990000000105, 2.8999940000000066, 7-11-2007
3.130004999999997, 2.8999940000000066, 0.42000600000000077, 0.6499939999999924, 7-12-2007
1.4800030000000106, 0.6499939999999924, 0.25, -1.4199979999999925, 7-13-2007
2.1999970000000104, -1.4199979999999925, -1.4199980000000068, -1.5200049999999976, 7-14-2007
2.2099989999999963, -1.5200049999999976, -0.9399939999999987, -0.870002999999997, 7-15-2007
1.5299980000000062, -0.870002999999997, -0.379997000000003, 1.3399959999999993, 7-16-2007
2.4800029999999964, 1.3399959999999993, -0.379997000000003, -0.9100040000000007, 7-17-2007
2.8299939999999992, -0.9100040000000007, 0.0, -0.8399959999999993, 7-18-2007
2.6599959999999925, -0.8399959999999993, 0.6399990000000031, 1.3399959999999993, 7-19-2007
2.1000060000000076, 1.3399959999999993, 1.1600040000000007, -2.1500020000000006, 7-20-2007
2.6700060000000008, -2.1500020000000006, 0.5400010000000037, 0.9499969999999962, 7-21-2007
3.1700050000000033, 0.9499969999999962, 0.8500060000000076, 0.6999969999999962, 8-1-2007
3.139999000000003, 0.6999969999999962, -1.3399959999999993, -1.3300020000000075, 8-2-2007
3.2999960000000073, -1.3300020000000075, -0.10999999999999943, 0.1599960000000067, 8-3-2007
3.0199970000000036, 0.1599960000000067, 0.22000099999999634, 1.25, 8-4-2007
3.0700000000000074, 1.25, 1.010002, 0.25, 8-5-2007
3.0399929999999955, 0.25, -1.239998, 1.119995000000003, 8-6-2007
4.740005999999994, 1.119995000000003, -2.129997000000003, 0.9899979999999999, 8-7-2007
3.030006, 0.9899979999999999, 0.45999899999999627, -0.9599989999999963, 8-8-2007
1.5400010000000037, -0.9599989999999963, -0.29000100000000373, -0.8600009999999969, 8-9-2007
1.9400020000000069, -0.8600009999999969, 0.6900030000000044, -2.349998999999997, 8-10-2007
3.5, -2.349998999999997, -1.1800000000000068, 1.5, 8-11-2007
3.880004999999997, 1.5, 1.1600040000000007, 1.4199979999999925, 8-12-2007
2.68000099999999, 1.4199979999999925, -1.7200009999999963, -0.08000199999999325, 8-13-2007
2.3399959999999993, -0.08000199999999325, -0.6100009999999969, -1.0800020000000075, 8-14-2007
2.199996999999996, -1.0800020000000075, 0.7100070000000045, -2.1000060000000076, 8-15-2007
2.760002, -2.1000060000000076, 0.7000050000000044, -0.33000200000000746, 8-16-2007
1.8499989999999968, -0.33000200000000746, 0.5299980000000062, 0.29000100000000373, 8-17-2007
1.2799989999999895, 0.29000100000000373, -0.2799980000000062, -0.7700049999999976, 8-18-2007
1.1600040000000007, -0.7700049999999976, -0.4799950000000024, -0.6600040000000007, 8-19-2007
1.370002999999997, -0.6600040000000007, 0.5600050000000039, 0.45999899999999627, 8-20-2007
1.4299999999999926, 0.45999899999999627, 0.0, 0.019997000000003595, 8-21-2007
1.880004999999997, 0.019997000000003595, 0.6700060000000008, -0.050003000000003794, 8-22-2007
1.1699980000000068, -0.050003000000003794, 0.0, 1.7699960000000061, 8-23-2007
2.9899970000000025, 1.7699960000000061, -0.009994000000006054, 0.2699960000000061, 9-1-2007
1.1600040000000007, 0.2699960000000061, 0.2700049999999976, 1.0399929999999955, 9-2-2007
1.9299919999999986, 1.0399929999999955, -0.629997000000003, -0.16999799999999254, 9-3-2007
1.2199939999999998, -0.16999799999999254, -0.09999899999999684, 0.5199969999999894, 9-4-2007
2.139999000000003, 0.5199969999999894, 0.09000400000000752, 0.879997000000003, 9-5-2007
2.349998999999997, 0.879997000000003, 0.30999699999999564, 0.9199990000000042, 9-6-2007
2.0499949999999956, 0.9199990000000042, -0.07000000000000739, -0.7299959999999999, 9-7-2007
1.3099980000000073, -0.7299959999999999, -0.7099989999999963, 1.3399959999999993, 9-8-2007
1.6400000000000006, 1.3399959999999993, 0.2200019999999938, -0.7200019999999938, 9-9-2007
1.239998, -0.7200019999999938, 0.15000200000000063, 1.8499979999999994, 9-10-2007
3.139999000000003, 1.8499979999999994, 0.8499989999999968, -0.47999599999999987, 9-11-2007
1.2099989999999963, -0.47999599999999987, -0.35999999999999943, -0.02999900000000366, 9-12-2007
1.18000099999999, -0.02999900000000366, 0.7900010000000037, -0.13000499999999704, 9-13-2007
1.4199980000000068, -0.13000499999999704, -0.0899959999999993, -0.6400000000000006, 9-14-2007
1.6000059999999934, -0.6400000000000006, -0.8100050000000039, -0.07999399999999923, 9-15-2007
1.620002999999997, -0.07999399999999923, 0.5799939999999992, -1.0799939999999992, 9-16-2007
2.25, -1.0799939999999992, 0.629997000000003, -0.620002999999997, 9-17-2007
1.489998, -0.620002999999997, 0.42000600000000077, -0.47000100000001055, 9-18-2007
1.1799919999999986, -0.47000100000001055, 0.08000200000000746, 0.8599930000000029, 9-19-2007
1.2100070000000045, 0.8599930000000029, -0.47999599999999987, 1.9099959999999925, 10-1-2007
2.8200000000000074, 1.9099959999999925, -0.3600009999999969, 0.1400069999999971, 10-2-2007
1.2099990000000105, 0.1400069999999971, 0.14000000000000057, 1.9300000000000068, 10-3-2007
2.9199980000000068, 1.9300000000000068, -0.1399990000000031, 1.0, 10-4-2007
1.6600040000000007, 1.0, -0.8600009999999969, -0.04000100000000373, 10-5-2007
1.2200010000000105, -0.04000100000000373, 0.5899959999999993, 1.1600040000000007, 10-6-2007
2.1699979999999925, 1.1600040000000007, -0.4300000000000068, 1.7200010000000105, 10-7-2007
2.370002999999997, 1.7200010000000105, 0.379997000000003, 0.9700019999999938, 10-8-2007
2.7900000000000063, 0.9700019999999938, -0.48999799999999993, 0.9599989999999963, 10-9-2007
1.6400000000000006, 0.9599989999999963, 0.7799990000000037, -0.48999799999999993, 10-10-2007
2.1800010000000043, -0.48999799999999993, -0.010002000000000066, 0.029998000000006186, 10-11-2007
1.0300060000000002, 0.029998000000006186, 0.3199999999999932, -0.4800029999999964, 10-12-2007
1.6500010000000032, -0.4800029999999964, -0.05999800000000732, 0.7099990000000105, 10-13-2007
1.4199979999999925, 0.7099990000000105, -0.29000100000000373, -2.0799939999999992, 10-14-2007
2.389999000000003, -2.0799939999999992, -1.9100040000000007, 0.5, 10-15-2007
1.9800029999999964, 0.5, 0.870002999999997, -1.8300019999999932, 10-16-2007
2.9099960000000067, -1.8300019999999932, -0.11000000000001364, 1.2300030000000106, 10-17-2007
2.680000000000007, 1.2300030000000106, 0.3199999999999932, 1.8999940000000066, 10-18-2007
2.199996999999996, 1.8999940000000066, 1.4900049999999965, -0.34999799999999937, 10-19-2007
2.1600030000000032, -0.34999799999999937, 0.5799939999999992, 0.020004000000000133, 10-20-2007
0.9599989999999963, 0.020004000000000133, 1.5799939999999992, 1.860000999999997, 10-21-2007
2.3899999999999864, 1.860000999999997, 0.9200060000000008, 1.7299950000000024, 10-22-2007
3.4099959999999925, 1.7299950000000024, -1.129997000000003, -0.870002999999997, 10-23-2007
2.510002, -0.870002999999997, 0.870002999999997, 0.0, 11-1-2007
1.889999000000003, 0.0, -0.7200009999999963, 0.25, 11-2-2007
3.7099989999999963, 0.25, 1.389999000000003, 0.08000199999999325, 11-3-2007
3.130004999999997, 0.08000199999999325, -0.370002999999997, -1.4000010000000032, 11-4-2007
2.400001000000003, -1.4000010000000032, 0.10000600000000759, 1.3199999999999932, 11-5-2007
3.4100040000000007, 1.3199999999999932, -0.990005999999994, 0.2800069999999977, 11-6-2007
1.9599999999999937, 0.2800069999999977, -1.6600040000000007, -1.4599989999999963, 11-7-2007
3.4099960000000067, -1.4599989999999963, 0.5400009999999895, 0.8300020000000075, 11-8-2007
3.0400009999999895, 0.8300020000000075, 1.5899959999999993, 0.0, 11-9-2007
3.220001999999994, 0.0, -0.16999800000000675, -1.9800039999999939, 11-10-2007
2.989998, -1.9800039999999939, 0.27999900000000366, -0.09999799999999937, 11-11-2007
2.130004999999997, -0.09999799999999937, -0.26000200000000007, -1.0399940000000072, 11-12-2007
2.120002999999997, -1.0399940000000072, 0.47999599999999987, -0.7399979999999999, 11-13-2007
2.2299950000000024, -0.7399979999999999, -0.620002999999997, -0.6500010000000032, 11-14-2007
1.860000999999997, -0.6500010000000032, 0.33000200000000746, 0.8599999999999994, 11-15-2007
1.9400030000000044, 0.8599999999999994, 0.5100029999999975, -1.25, 11-16-2007
2.3599999999999994, -1.25, -1.6699990000000042, 1.2699970000000036, 11-17-2007
1.8399959999999993, 1.2699970000000036, 0.4499969999999962, 0.7400050000000107, 11-18-2007
2.2099989999999963, 0.7400050000000107, -0.06000500000000386, -0.41999800000000675, 11-19-2007
2.2099989999999963, -0.41999800000000675, -0.7099989999999963, 0.27999900000000366, 11-20-2007
2.0299990000000037, 0.27999900000000366, -0.27999900000000366, 0.3099979999999931, 11-21-2007
1.75, 0.3099979999999931, 0.11000000000001364, -0.15000100000000316, 12-1-2007
1.6800000000000068, -0.15000100000000316, 0.9900049999999965, 1.4799959999999999, 12-2-2007
2.240005999999994, 1.4799959999999999, -0.02999900000000366, 3.610000999999997, 12-3-2007
4.2799989999999895, 3.610000999999997, 0.3400040000000075, -1.0, 12-4-2007
2.650001000000003, -1.0, 0.0699989999999957, 0.48999799999999993, 12-5-2007
1.3199999999999932, 0.48999799999999993, 0.27999900000000366, -1.0299990000000037, 12-6-2007
2.4499970000000104, -1.0299990000000037, 1.9599990000000105, 0.9599989999999963, 12-7-2007
1.9399949999999961, 0.9599989999999963, -1.08000100000001, 0.6200020000000137, 12-8-2007
2.54999500000001, 0.6200020000000137, -0.4800030000000106, -1.5999989999999968, 12-9-2007
1.8499979999999994, -1.5999989999999968, -0.20999899999999627, -0.8099970000000098, 12-10-2007
2.25, -0.8099970000000098, 1.4599990000000105, -1.4400030000000044, 12-11-2007
2.25, -1.4400030000000044, 0.6400000000000006, 0.3199999999999932, 12-12-2007
1.8400040000000075, 0.3199999999999932, 0.6700050000000033, 0.7199939999999998, 12-13-2007
1.6099999999999994, 0.7199939999999998, 0.75, -0.019996999999989384, 12-14-2007
0.9400020000000069, -0.019996999999989384, -0.7200010000000105, 1.3099980000000073, 12-15-2007
1.739998, 1.3099980000000073, -0.22999599999999987, -0.5100020000000001, 12-16-2007
1.139999000000003, -0.5100020000000001, -0.19999700000001042, -0.45999899999999627, 12-17-2007
1.2599949999999893, -0.45999899999999627, 0.2999950000000098, 1.0, 12-18-2007
1.5299989999999895, 1.0, -0.20999900000001048, -1.4599989999999963, 12-19-2007
2.0, 1.2900010000000037, 0.010002000000000066, 1.879997000000003, 1-1-2008
3.25, 1.879997000000003, -0.9700010000000105, -3.239998, 1-2-2008
3.400001000000003, -3.239998, 0.7299959999999999, -1.0799939999999992, 1-3-2008
3.3900000000000006, -1.0799939999999992, 0.5999979999999994, -2.3499979999999994, 1-4-2008
4.099998999999997, -2.3499979999999994, 0.379997000000003, 1.9300000000000068, 1-5-2008
2.2699970000000036, 1.9300000000000068, -0.8499980000000136, 0.6899950000000104, 1-6-2008
2.3399969999999968, 0.6899950000000104, -1.1299980000000005, 1.0400010000000037, 1-7-2008
1.9700010000000105, 1.0400010000000037, 0.5400009999999895, 3.6999970000000104, 1-8-2008
4.089996999999997, 3.6999970000000104, -1.9199980000000068, -0.26000200000000007, 1-9-2008
2.559997999999993, -0.26000200000000007, -0.36999500000000296, -2.010002, 1-10-2008
3.889999000000003, -2.010002, 0.10999999999999943, -4.730002999999996, 1-11-2008
6.680000000000007, -4.730002999999996, 0.45000400000000695, 0.6899949999999961, 1-12-2008
3.1599960000000067, 0.6899949999999961, -3.019996000000006, 1.3499979999999994, 1-13-2008
5.599997999999999, 1.3499979999999994, -2.0400009999999895, 1.240005999999994, 1-14-2008
5.760002, 1.240005999999994, 1.3299939999999992, 1.5999979999999994, 1-15-2008
3.4100040000000007, 1.5999979999999994, 0.6600040000000007, -2.2699970000000036, 1-16-2008
4.05999700000001, -2.2699970000000036, -0.050002999999989584, 1.4800039999999939, 1-17-2008
2.880004999999997, 1.4800039999999939, 0.3399959999999993, -0.7300029999999964, 1-18-2008
2.129997000000003, -0.7300029999999964, -0.5399940000000072, 2.0799949999999967, 1-19-2008
4.489998, 2.0799949999999967, -1.66999899999999, 2.44000299999999, 1-20-2008
4.44000299999999, 2.44000299999999, 0.08999600000001351, 2.0299989999999895, 1-21-2008
2.5799939999999992, 2.0299989999999895, -0.32999399999999923, 1.5400010000000037, 2-1-2008
2.1699980000000068, 1.5400010000000037, -2.490005999999994, -0.6699980000000068, 2-2-2008
2.5400010000000037, -0.6699980000000068, 1.3399959999999993, -1.0199960000000061, 2-3-2008
2.5099949999999893, -1.0199960000000061, -0.6999969999999962, 2.9699930000000023, 2-4-2008
3.879997000000003, 2.9699930000000023, 1.2900010000000037, 2.740005999999994, 2-5-2008
4.059997999999993, 2.740005999999994, -0.42000600000000077, 4.730003000000011, 2-6-2008
5.400002000000001, 4.730003000000011, 0.4099959999999925, -0.9099959999999925, 2-7-2008
3.7200009999999963, -0.9099959999999925, 0.9400029999999902, 1.2799990000000037, 2-8-2008
2.139999000000003, 1.2799990000000037, -1.2799990000000037, -1.25, 2-9-2008
2.8599999999999994, -1.25, -0.5600050000000039, -1.0299989999999895, 2-10-2008
4.989998, -1.0299989999999895, 2.25, 0.13000499999999704, 2-11-2008
4.309997999999993, 0.13000499999999704, -1.360000999999997, 3.469994, 2-12-2008
3.9299999999999926, 3.469994, 0.38000499999999704, -3.230003999999994, 2-13-2008
3.4400030000000044, -3.230003999999994, 0.20999899999999627, 1.4700009999999963, 2-14-2008
2.5899969999999968, 1.4700009999999963, 0.6699990000000042, 4.109999999999999, 2-15-2008
4.650001000000003, 4.109999999999999, -0.29000100000000373, 4.390006999999997, 2-16-2008
6.54999500000001, 4.390006999999997, -1.7200009999999963, -0.8300019999999932, 2-17-2008
2.6699980000000068, -0.8300019999999932, 7.059997999999993, 11.990004999999996, 2-18-2008
17.34999099999999, 11.990004999999996, -1.6000059999999934, -4.139999000000003, 2-19-2008
5.959998999999996, -4.139999000000003, 0.08000199999999325, 3.0999980000000136, 2-20-2008
5.429999999999993, 3.0999980000000136, -2.1699980000000068, -0.09999799999999937, 3-1-2008
5.870002999999997, -0.09999799999999937, 1.0899959999999993, -0.379997000000003, 3-2-2008
2.449996999999996, -0.379997000000003, -0.8300019999999932, -2.1699980000000068, 3-3-2008
3.4099960000000067, -2.1699980000000068, -1.1600040000000007, 0.010002000000000066, 3-4-2008
3.4700010000000105, 0.010002000000000066, 0.0, -1.9000010000000032, 3-5-2008
2.9199979999999925, -1.9000010000000032, 2.2099990000000105, 5.130004999999997, 3-6-2008
6.139999000000003, 5.130004999999997, -0.15000200000000063, -2.819999999999993, 3-7-2008
4.870002000000014, -2.819999999999993, -1.4499970000000104, 9.479996, 3-8-2008
10.669990999999996, 9.479996, -0.7299959999999999, -0.13000499999999704, 3-9-2008
3.9400019999999927, -0.13000499999999704, -2.75, -2.9399939999999987, 3-10-2008
6.9700010000000105, -2.9399939999999987, 3.019996000000006, 0.04000099999998952, 3-11-2008
2.680000000000007, 0.04000099999998952, -0.6099999999999994, -9.739998, 3-12-2008
12.209999999999994, -9.739998, -3.120002999999997, 2.2699970000000036, 3-13-2008
7.220000999999996, 2.2699970000000036, 0.6799999999999926, 1.0600050000000039, 3-14-2008
4.490005999999994, 1.0600050000000039, 0.7699970000000036, 1.4400019999999927, 3-15-2008
4.300003000000004, 1.4400019999999927, -0.45999899999999627, 4.650002000000001, 3-16-2008
5.799995999999993, 4.650002000000001, -0.04000100000000373, -2.45000499999999, 3-17-2008
5.019996000000006, -2.45000499999999, 1.0800019999999932, -0.12000299999999697, 3-18-2008
3.3100049999999896, -0.12000299999999697, 1.6600040000000007, -0.5400010000000037, 3-19-2008
4.440002000000007, -0.5400010000000037, 1.2200009999999963, -0.34999799999999937, 3-20-2008
3.9700009999999963, -0.34999799999999937, 0.41999800000000675, 0.06999999999999318, 4-1-2008
4.940002000000007, 0.06999999999999318, -0.9599989999999963, 1.0400000000000063, 4-2-2008
3.1999959999999987, 1.0400000000000063, 1.2299959999999999, 1.110000999999997, 4-3-2008
3.190002000000007, 1.110000999999997, 1.1600030000000032, 1.239998, 4-4-2008
4.280006, 1.239998, -0.9300000000000068, 3.5099950000000035, 4-5-2008
4.190001999999993, 3.5099950000000035, -0.9899979999999999, -0.07999499999999671, 4-6-2008
3.360000999999997, -0.07999499999999671, -0.24000500000001068, 2.3700100000000077, 4-7-2008
3.020004, 2.3700100000000077, -1.4700009999999963, -2.0300060000000144, 4-8-2008
3.499999999999986, -2.0300060000000144, 0.16999800000000675, 1.4000010000000032, 4-9-2008
3.1400070000000113, 1.4000010000000032, 2.2100070000000045, 1.0399929999999813, 4-10-2008
5.640000000000015, 1.0399929999999813, 1.8099980000000073, 0.050003000000003794, 4-11-2008
3.479996, 0.050003000000003794, 0.0, -1.0399930000000097, 4-12-2008
3.759994000000006, -1.0399930000000097, 1.0199890000000096, 1.1900019999999927, 4-13-2008
5.439988, 1.1900019999999927, 0.8200070000000039, 2.41999899999999, 4-14-2008
4.2400049999999965, 2.41999899999999, 0.5699920000000134, -0.7299959999999999, 4-15-2008
4.029998000000006, -0.7299959999999999, -0.25, 0.25, 4-16-2008
3.2100069999999903, 0.25, -1.6699979999999925, -3.8300020000000075, 4-17-2008
5.340011000000004, -3.8300020000000075, 0.9499969999999962, 3.050003000000004, 4-18-2008
5.4200130000000115, 3.050003000000004, 1.1900019999999927, -2.900008999999983, 4-19-2008
3.3999939999999924, -2.900008999999983, -1.349991000000017, -4.330000999999982, 4-20-2008
4.789999999999992, -4.330000999999982, 0.1499939999999924, 1.9700009999999963, 4-21-2008
3.5, 1.9700009999999963, -1.2899940000000072, -2.3400039999999933, 4-22-2008
6.649993999999992, -2.3400039999999933, -1.6500010000000032, 2.550003000000004, 5-1-2008
6.080001999999993, 2.550003000000004, 1.0200040000000001, 3.7699890000000096, 5-2-2008
5.120010000000008, 3.7699890000000096, -0.6100000000000136, 5.950012000000015, 5-3-2008
6.220000999999996, 5.950012000000015, 1.2099910000000023, -4.069992000000013, 5-4-2008
4.5, -4.069992000000013, -0.4400019999999927, 5.209991000000002, 5-5-2008
5.979996, 5.209991000000002, 1.1000059999999792, -2.389998999999989, 5-6-2008
4.910002999999989, -2.389998999999989, -0.6000060000000076, -1.8999939999999924, 5-7-2008
2.799987999999985, -1.8999939999999924, 1.1199949999999887, 1.430008000000015, 5-8-2008
4.810012999999998, 1.430008000000015, 1.0299990000000037, -4.710007000000019, 5-9-2008
5.350006000000008, -4.710007000000019, 3.0800020000000075, -1.9799959999999999, 5-10-2008
5.549987999999985, -1.9799959999999999, 1.240005999999994, 3.779998000000006, 5-11-2008
4.790008999999998, 3.779998000000006, 1.1199960000000146, -2.2100070000000187, 5-12-2008
2.9600070000000187, -2.2100070000000187, 0.27999900000000366, 3.2300109999999904, 5-13-2008
5.0800020000000075, 3.2300109999999904, 0.5899960000000135, -5.199996999999996, 5-14-2008
6.210005999999993, -5.199996999999996, 0.16999799999999254, -2.270004, 5-15-2008
5.059998000000007, -2.270004, 1.2900080000000003, -3.020004, 5-16-2008
6.570007000000004, -3.020004, -0.22000099999999634, -1.6199949999999887, 5-17-2008
2.820007000000004, -1.6199949999999887, -1.660004000000015, 2.94000299999999, 5-18-2008
4.489990000000006, 2.94000299999999, -0.8399969999999826, -5.770004, 5-19-2008
6.190010000000001, -5.770004, 0.27000400000000013, 0.5599980000000073, 5-20-2008
4.570000000000007, 0.5599980000000073, -0.7300030000000106, -0.5600060000000013, 5-21-2008
4.399994000000007, -0.5600060000000013, -0.619995000000003, -2.650001000000003, 6-1-2008
5.110008000000008, -2.650001000000003, -0.9199979999999925, 0.9399939999999987, 6-2-2008
3.9899970000000025, 0.9399939999999987, 0.7600020000000001, 6.43999500000001, 6-3-2008
6.44999700000001, 6.43999500000001, 0.990005999999994, -3.4700009999999963, 6-4-2008
8.440001999999993, -3.4700009999999963, 0.9400019999999927, 2.139998999999989, 6-5-2008
4.740005999999994, 2.139998999999989, 0.2100070000000187, -3.6399990000000173, 6-6-2008
6.229996, -3.6399990000000173, 1.3399960000000135, -1.410004000000015, 6-7-2008
3.900008999999997, -1.410004000000015, 2.110001000000011, -1.9199979999999925, 6-8-2008
3.150008999999997, -1.9199979999999925, -1.2000050000000044, 2.9300010000000043, 6-9-2008
4.360008999999991, 2.9300010000000043, 0.9300069999999891, -1.8100120000000004, 6-10-2008
4.449997000000025, -1.8100120000000004, 0.6200100000000077, 1.9599919999999997, 6-11-2008
3.640000000000015, 1.9599919999999997, -0.41999899999999, 1.4400029999999902, 6-12-2008
3.919998000000021, 1.4400029999999902, 1.8899989999999889, -4.619994999999989, 6-13-2008
4.900009000000011, -4.619994999999989, 1.1900019999999927, -1.08000100000001, 6-14-2008
4.050003000000004, -1.08000100000001, 0.0, 5.129989000000023, 6-15-2008
6.1700130000000115, 5.129989000000023, -0.5499880000000132, -4.540008, 6-16-2008
4.620010000000008, -4.540008, 0.49000499999999647, -3.1000059999999934, 6-17-2008
6.179999999999993, -3.1000059999999934, -0.5599969999999956, -1.0899969999999968, 6-18-2008
4.149994000000007, -1.0899969999999968, 1.68000099999999, 2.3199989999999957, 6-19-2008
4.809989999999999, 2.3199989999999957, 1.679992999999996, -0.6699979999999925, 6-20-2008
3.160002999999989, -0.6699979999999925, 0.33000200000000746, 0.009994000000006054, 6-21-2008
3.050003000000004, 0.009994000000006054, 0.7100069999999903, -7.680000000000007, 7-1-2008
9.379996999999989, -7.680000000000007, -0.05999799999999311, -3.800003000000004, 7-2-2008
6.260002, -3.800003000000004, -1.739998, -3.510002, 7-3-2008
6.020004, -3.510002, -1.4700009999999963, 3.3499979999999994, 7-4-2008
7.759994000000006, 3.3499979999999994, 1.1600040000000007, -7.309997999999993, 7-5-2008
8.459998999999996, -7.309997999999993, 0.23999799999999993, 5.059997999999993, 7-6-2008
5.239998, 5.059997999999993, 0.7600020000000001, 1.3099979999999931, 7-7-2008
3.6699980000000068, 1.3099979999999931, 1.3800040000000138, -0.9000010000000032, 7-8-2008
3.8300020000000075, -0.9000010000000032, -1.4400030000000044, -6.119995000000003, 7-9-2008
8.489998, -6.119995000000003, -1.0500029999999896, -1.989998, 7-10-2008
5.5899960000000135, -1.989998, 0.9300009999999901, -4.75, 7-11-2008
9.599998000000014, -4.75, 0.379997000000003, 1.389999000000003, 7-12-2008
5.230003000000011, 1.389999000000003, 1.610000999999997, 1.0299990000000037, 7-13-2008
4.7399970000000025, 1.0299990000000037, -1.0999989999999968, -1.5, 7-14-2008
5.609999999999999, -1.5, -0.18000000000000682, -3.2300029999999964, 7-15-2008
5.650001000000003, -3.2300029999999964, 1.380004999999997, -3.220001999999994, 7-16-2008
7.309998000000007, -3.220001999999994, 1.5400009999999895, 1.3300020000000075, 7-17-2008
5.069999999999993, 1.3300020000000075, 0.3099979999999931, -2.480003999999994, 7-18-2008
5.119995000000003, -2.480003999999994, -1.119995000000003, -0.75, 7-19-2008
4.04999500000001, -0.75, -1.6900020000000069, 6.8300020000000075, 7-20-2008
7.330001999999993, 6.8300020000000075, 2.4899970000000025, -7.109999999999999, 7-21-2008
7.479995000000002, -7.109999999999999, 1.0999979999999994, -1.139999000000003, 7-22-2008
4.879997000000003, -1.139999000000003, -0.6899949999999961, -6.520004, 8-1-2008
7.720000999999996, -6.520004, 0.7200009999999963, 0.8000030000000038, 8-2-2008
3.940002000000007, 0.8000030000000038, 0.5099949999999893, 2.6700050000000033, 8-3-2008
4.089995999999999, 2.6700050000000033, 0.09999899999999684, -2.45000499999999, 8-4-2008
4.400002000000001, -2.45000499999999, -2.31999900000001, 0.5500030000000038, 8-5-2008
2.3299949999999967, 0.5500030000000038, 1.4700009999999963, 0.02999900000000366, 8-6-2008
3.969994, 0.02999900000000366, 0.6800000000000068, -0.7399979999999999, 8-7-2008
3.900001000000003, -0.7399979999999999, -0.2100070000000045, 4.490005999999994, 8-8-2008
4.9599990000000105, 4.490005999999994, 0.8899990000000031, -3.4199979999999925, 8-9-2008
4.620002999999997, -3.4199979999999925, -1.4100040000000007, -0.04000100000000373, 8-10-2008
2.4000019999999864, -0.04000100000000373, 0.45000500000000443, -1.3100050000000039, 8-11-2008
3.1600040000000007, -1.3100050000000039, -0.36999500000000296, 5.509994000000006, 8-12-2008
5.879997000000003, 5.509994000000006, 2.360000999999997, 3.3599999999999994, 8-13-2008
4.309997999999993, 3.3599999999999994, 3.2099999999999937, -2.5, 8-14-2008
4.339996999999997, -2.5, -0.1299979999999863, -2.5400010000000037, 8-15-2008
4.5800020000000075, -2.5400010000000037, -0.25, -1.1800000000000068, 8-16-2008
3.4499970000000104, -1.1800000000000068, 2.680000000000007, 2.870002999999997, 8-17-2008
3.980003999999994, 2.870002999999997, 1.9300000000000068, -0.5200040000000001, 8-18-2008
3.5, -0.5200040000000001, 2.2900009999999895, -6.120002999999997, 8-19-2008
8.370002999999997, -6.120002999999997, 1.6500020000000006, -2.569999999999993, 8-20-2008
3.239998, -2.569999999999993, -5.5, -3.009994000000006, 8-21-2008
7.120002999999997, -3.009994000000006, -0.38000499999999704, -1.4199980000000068, 9-1-2008
5.5900040000000075, -1.4199980000000068, -0.12000299999999697, -0.5400010000000037, 9-2-2008
5.799994999999996, -0.5400010000000037, 1.4900050000000107, 0.8399969999999968, 9-3-2008
4.280006999999998, 0.8399969999999968, 2.1900019999999927, -5.679999999999993, 9-4-2008
6.540001000000004, -5.679999999999993, -1.610000999999997, -6.290001000000004, 9-5-2008
7.209999999999994, -6.290001000000004, 0.6299980000000005, 2.8000029999999896, 9-6-2008
4.880004999999997, 2.8000029999999896, -0.1999969999999962, 0.9499969999999962, 9-7-2008
5.970001999999994, 0.9499969999999962, -0.5599979999999931, 2.809997999999993, 9-8-2008
3.4000020000000006, 2.809997999999993, -5.75, 0.2799980000000062, 9-9-2008
5.0400009999999895, 0.2799980000000062, -1.3199989999999957, 3.0500029999999896, 9-10-2008
7.139999000000003, 3.0500029999999896, 0.04999500000000978, 1.68000099999999, 9-11-2008
7.690001999999993, 1.68000099999999, 2.180000000000007, 1.5200040000000001, 9-12-2008
7.339995999999999, 1.5200040000000001, 5.069999999999993, -0.5800019999999932, 9-13-2008
7.5, -0.5800019999999932, 0.23999799999999993, -1.5599979999999931, 9-14-2008
5.19999700000001, -1.5599979999999931, -1.6699980000000068, 1.1400000000000006, 9-15-2008
6.0100029999999975, 1.1400000000000006, 1.5999979999999994, -1.989998, 9-16-2008
3.460005999999993, -1.989998, -0.75, 2.869995000000003, 9-17-2008
4.8799980000000005, 2.869995000000003, -2.80999700000001, 0.4499970000000104, 9-18-2008
5.980003000000011, 0.4499970000000104, -3.5199970000000036, -6.180000000000007, 9-19-2008
11.199996999999996, -6.180000000000007, 1.8600000000000136, 2.7799989999999895, 9-20-2008
4.769997000000004, 2.7799989999999895, -1.370002999999997, 1.6500020000000006, 9-21-2008
7.660004000000001, 1.6500020000000006, -1.0999989999999968, -10.029998000000006, 10-1-2008
10.180000000000007, -10.029998000000006, 0.2699960000000061, 1.0600050000000039, 10-2-2008
8.220000999999996, 1.0600050000000039, -4.940002000000007, 0.75, 10-3-2008
9.25, 0.75, 1.2200009999999963, -5.809996999999996, 10-4-2008
7.299994999999996, -5.809996999999996, -3.2100070000000045, 3.680000000000007, 10-5-2008
8.699996999999996, 3.680000000000007, 1.4500049999999902, -8.720000999999996, 10-6-2008
9.389999000000003, -8.720000999999996, -2.7600029999999975, -2.009997999999996, 10-7-2008
10.270004000000007, -2.009997999999996, 2.439998999999993, 9.720001000000003, 10-8-2008
10.190002, 9.720001000000003, 2.1699980000000068, -2.979996, 10-9-2008
10.119995000000003, -2.979996, -2.4900050000000107, -7.279998999999997, 10-10-2008
8.409996, -7.279998999999997, 1.7100030000000004, 6.219996999999999, 10-11-2008
10.360000999999997, 6.219996999999999, -1.6599959999999925, 1.5, 10-12-2008
11.550003000000004, 1.5, 2.720001999999994, 3.379997000000003, 10-13-2008
5.639999000000003, 3.379997000000003, -2.180000000000007, -0.5, 10-14-2008
5.940002000000007, -0.5, -3.2799990000000037, -3.0500029999999896, 10-15-2008
6.060001, -3.0500029999999896, 1.3300019999999932, -1.0500030000000038, 10-16-2008
8.05999700000001, -1.0500030000000038, -5.04999999999999, 4.610004999999994, 10-17-2008
9.950001, 4.610004999999994, -1.7200009999999963, -1.1600000000000037, 10-18-2008
6.38999900000001, -1.1600000000000037, 1.5799979999999962, 2.9599990000000105, 10-19-2008
8.119994999999996, 2.9599990000000105, 1.9400019999999927, 3.110000999999997, 10-20-2008
8.389999000000003, 3.110000999999997, 1.379997000000003, 3.010002, 10-21-2008
5.729995000000002, 3.010002, -1.6699979999999925, 5.619995000000003, 10-22-2008
9.619995000000003, 5.619995000000003, -3.0899960000000135, -2.0500029999999896, 10-23-2008
5.310006000000001, -2.0500029999999896, 2.9800029999999964, 5.400002000000001, 11-1-2008
7.940002000000007, 5.400002000000001, -2.0300069999999977, -0.3199990000000099, 11-2-2008
4.679999999999993, -0.3199990000000099, -2.949996999999996, -1.6900029999999902, 11-3-2008
5.580001999999993, -1.6900029999999902, 0.870002999999997, 1.8399959999999993, 11-4-2008
5.330001999999993, 1.8399959999999993, 2.260002, -1.0400010000000037, 11-5-2008
6.130004999999997, -1.0400010000000037, -2.1799999999999926, -0.09999800000001358, 11-6-2008
4.560006000000001, -0.09999800000001358, -1.8199999999999932, -0.8300019999999932, 11-7-2008
3.389999000000003, -0.8300019999999932, 0.4100039999999865, 8.389999000000003, 11-8-2008
13.149994000000007, 8.389999000000003, -1.7000039999999927, -2.6400000000000006, 11-9-2008
5.870002999999997, -2.6400000000000006, -0.4499969999999962, 0.2699969999999894, 11-10-2008
5.300003000000004, 0.2699969999999894, 0.6900020000000069, 1.3900000000000006, 11-11-2008
5.9100039999999865, 1.3900000000000006, 1.0, -6.25, 11-12-2008
7.730003999999994, -6.25, -2.0599980000000073, -10.25, 11-13-2008
12.180000000000007, -10.25, 1.9099960000000067, 7.830001999999993, 11-14-2008
10.199996999999996, 7.830001999999993, 2.8300020000000075, 6.099997999999999, 11-15-2008
10.599998000000014, 6.099997999999999, 0.5500030000000038, -0.1700050000000033, 11-16-2008
4.0900040000000075, -0.1700050000000033, -2.739998, 7.190001999999993, 11-17-2008
8.029999000000004, 7.190001999999993, -2.0599969999999956, -1.390006999999997, 11-18-2008
5.319998999999996, -1.390006999999997, -3.5099950000000035, -5.410004000000001, 11-19-2008
7.170006000000001, -5.410004000000001, 2.4000020000000006, 1.5199970000000036, 12-1-2008
4.55000299999999, 1.5199970000000036, -1.8299949999999967, 1.799995999999993, 12-2-2008
4.369995000000003, 1.799995999999993, -2.1699980000000068, -9.02999899999999, 12-3-2008
11.009995000000004, -9.02999899999999, -1.7900010000000037, 0.9400020000000069, 12-4-2008
5.499996999999993, 0.9400020000000069, 2.6399999999999864, -1.510002, 12-5-2008
5.650001000000003, -1.510002, -0.9700019999999938, 2.3000040000000013, 12-6-2008
7.080001999999993, 2.3000040000000013, 1.4799950000000024, 1.7900010000000037, 12-7-2008
4.369995000000003, 1.7900010000000037, 1.3100049999999896, -2.9200050000000033, 12-8-2008
6.990005999999994, -2.9200050000000033, -3.3299949999999967, -0.7600020000000001, 12-9-2008
2.989998, -0.7600020000000001, 2.0700000000000074, -0.9000020000000006, 12-10-2008
4.220001999999994, -0.9000020000000006, 1.5400010000000037, 0.33000199999999325, 12-11-2008
2.5799939999999992, 0.33000199999999325, -0.20999899999999627, -1.2000050000000044, 12-12-2008
3.3600000000000136, -1.2000050000000044, -0.44999599999999873, -4.310006000000001, 12-13-2008
5.599998999999997, -4.310006000000001, 0.050003000000003794, 0.06999999999999318, 12-14-2008
2.759998000000003, 0.06999999999999318, -0.22999599999999987, -3.570003, 12-15-2008
5.0100029999999975, -3.570003, 0.20000100000000032, 1.9700010000000034, 12-16-2008
3.509993999999999, 1.9700010000000034, -1.6799999999999997, 1.2099989999999963, 12-17-2008
1.7099990000000034, 1.2099989999999963, 0.16999799999999965, 1.239998000000007, 12-18-2008
1.5699959999999962, 1.239998000000007, 1.4200050000000033, 0.4499969999999962, 12-19-2008
2.1600040000000007, 0.4499969999999962, -0.2799980000000062, -0.04000100000000373, 12-20-2008
2.120002999999997, -0.04000100000000373, -0.9000019999999864, 1.6600039999999865, 12-21-2008
3.970001999999994, 2.449996999999996, -0.20999899999999627, 0.48999799999999993, 1-1-2009
3.8000029999999896, 0.48999799999999993, 0.8600009999999969, -0.4099960000000067, 1-2-2009
1.8700019999999995, -0.4099960000000067, -0.9400029999999902, -1.510002, 1-3-2009
4.139999000000003, -1.510002, 0.9800039999999939, -0.04000100000000373, 1-4-2009
2.5900039999999933, -0.04000100000000373, -0.05999799999999311, -3.010002, 1-5-2009
4.480003999999994, -3.010002, -1.0800020000000075, -1.889998999999996, 1-6-2009
3.5199969999999965, -1.889998999999996, -0.009999000000000535, 3.5200009999999935, 1-7-2009
4.830000999999996, 3.5200009999999935, -1.4800039999999939, -2.2099989999999963, 1-8-2009
3.5899969999999897, -2.2099989999999963, -0.1399990000000031, 0.7699970000000036, 1-9-2009
3.2000010000000003, 0.7699970000000036, 1.0699989999999957, -1.3599960000000024, 1-10-2009
3.4800029999999964, -1.3599960000000024, -1.0700000000000003, -1.9299999999999997, 1-11-2009
4.589996000000006, -1.9299999999999997, 0.3899990000000031, 4.200000999999993, 1-12-2009
4.669998, 4.200000999999993, -2.439998999999993, 0.8400000000000034, 1-13-2009
3.369999, 0.8400000000000034, -1.2800020000000032, 4.130000999999993, 1-14-2009
6.219997000000006, 4.130000999999993, 1.129997000000003, 0.3000030000000038, 1-15-2009
2.9100030000000032, 0.3000030000000038, -0.4100040000000007, -0.9299919999999986, 1-16-2009
1.8300019999999932, -0.9299919999999986, 1.3399959999999993, 1.9599989999999963, 1-17-2009
3.3300020000000075, 1.9599989999999963, -1.5899959999999993, 0.1999969999999962, 1-18-2009
1.8399959999999993, 0.1999969999999962, 1.4300000000000068, -2.2300029999999964, 1-19-2009
3.4700009999999963, -2.2300029999999964, -1.4099960000000067, 0.379997000000003, 1-20-2009
1.9399949999999961, 0.379997000000003, 0.8300019999999932, 0.3199990000000099, 2-1-2009
2.010002, 0.3199990000000099, 0.7900010000000037, -0.09999800000001358, 2-2-2009
2.1199959999999862, -0.09999800000001358, -0.20999899999999627, 0.7199930000000023, 2-3-2009
3.129997000000003, 0.7199930000000023, -1.4699930000000023, 0.7900010000000037, 2-4-2009
2.8699959999999862, 0.7900010000000037, 0.8499979999999994, 1.4799959999999999, 2-5-2009
2.9100040000000007, 1.4799959999999999, 0.20999899999999627, -4.549994999999996, 2-6-2009
5.929999999999993, -4.549994999999996, 1.1999959999999987, -3.2399970000000025, 2-7-2009
4.360000999999997, -3.2399970000000025, -1.2000010000000003, 0.9399980000000028, 2-8-2009
2.3000040000000013, 0.9399980000000028, 0.5, -0.8799969999999959, 2-9-2009
1.9999969999999934, -0.8799969999999959, -1.7299990000000065, -5.75, 2-10-2009
5.930000999999997, -5.75, 0.5999980000000065, -0.22000100000000344, 2-11-2009
2.0700000000000003, -0.22000100000000344, 0.38000100000000003, -1.1799999999999997, 2-12-2009
2.739998, -1.1799999999999997, -1.2099990000000034, 0.5, 2-13-2009
2.050003000000004, 0.5, 0.880001, -5.010002, 2-14-2009
5.5100029999999975, -5.010002, 0.49000100000000657, 1.860000999999997, 2-15-2009
2.4599989999999963, 1.860000999999997, -0.10000200000000348, -1.2000010000000003, 2-16-2009
2.4000019999999935, -1.2000010000000003, 0.8400000000000034, -1.4599990000000034, 2-17-2009
2.409998999999999, -1.4599990000000034, -1.3499989999999968, -0.020000000000003126, 2-18-2009
2.770000000000003, -0.020000000000003126, -1.7700009999999935, -2.6799999999999997, 2-19-2009
4.660000000000004, -2.6799999999999997, 0.9199979999999996, 1.5300029999999936, 3-1-2009
4.170002000000004, 1.5300029999999936, 1.4199980000000068, 1.639998999999996, 3-2-2009
3.5499989999999997, 1.639998999999996, -0.769995999999999, 1.509998000000003, 3-3-2009
3.270000000000003, 1.509998000000003, 1.4099999999999966, -1.1799999999999997, 3-4-2009
4.1399999999999935, -1.1799999999999997, -0.8400000000000034, -0.8100019999999972, 3-5-2009
2.5400000000000063, -0.8100019999999972, 1.1500020000000006, 1.3399999999999963, 3-6-2009
2.7200010000000034, 1.3399999999999963, 0.40000100000000316, 0.6899990000000003, 3-7-2009
2.2099990000000034, 0.6899990000000003, 0.2700000000000031, 4.540000999999997, 3-8-2009
5.439998000000003, 4.540000999999997, -0.06000099999999975, 0.24000199999999694, 3-9-2009
1.6899990000000003, 0.24000199999999694, -0.3900039999999976, 2.9200020000000038, 3-10-2009
4.370003000000004, 2.9200020000000038, -0.06000099999999975, 1.639998999999996, 3-11-2009
2.7299989999999994, 1.639998999999996, -0.649996999999999, -0.44000299999999726, 3-12-2009
4.280002999999994, -0.44000299999999726, 1.620002999999997, -0.3899990000000031, 3-13-2009
2.360000999999997, -0.3899990000000031, 0.9699969999999993, -2.259997999999996, 3-14-2009
3.7200010000000034, -2.259997999999996, 1.6899980000000028, 2.44000299999999, 3-15-2009
3.220002000000001, 2.44000299999999, -1.1799999999999926, -0.8200000000000074, 3-16-2009
2.200004, -0.8200000000000074, -0.28000299999999356, -0.35999999999999943, 3-17-2009
4.389999000000003, -0.35999999999999943, 0.640002999999993, -2.0899999999999963, 3-18-2009
3.6700020000000038, -2.0899999999999963, -1.0500029999999967, -1.6299980000000005, 3-19-2009
2.25, -1.6299980000000005, -1.640003, -1.009998000000003, 3-20-2009
3.119999, -1.009998000000003, 0.5299990000000037, -2.430000999999997, 3-21-2009
3.7900010000000037, -2.430000999999997, -1.0, 3.370002999999997, 3-22-2009
4.319999999999993, 3.370002999999997, 1.5399969999999996, 1.6600040000000007, 4-1-2009
2.740002000000004, 1.6600040000000007, -0.010002000000000066, 2.819999000000003, 4-2-2009
4.380000999999993, 2.819999000000003, -1.0699990000000028, -1.369999, 4-3-2009
2.4500010000000003, -1.369999, -1.360000999999997, -1.369999, 4-4-2009
2.1899980000000028, -1.369999, -0.6800000000000068, 1.759998000000003, 4-5-2009
3.7100030000000004, 1.759998000000003, 1.9700010000000034, 0.32999799999999624, 4-6-2009
2.380001, 0.32999799999999624, -0.9199979999999996, 1.5400010000000037, 4-7-2009
4.020000000000003, 1.5400010000000037, -0.13000100000000003, -1.3200000000000003, 4-8-2009
2.3400000000000034, -1.3200000000000003, -0.5200000000000031, -0.7599980000000031, 4-9-2009
3.0999979999999994, -0.7599980000000031, 0.9599990000000034, -1.619999, 4-10-2009
2.899996999999999, -1.619999, -0.7800030000000007, 2.2800030000000007, 4-11-2009
3.3399959999999993, 2.2800030000000007, -1.5600019999999972, -2.5499989999999997, 4-12-2009
2.850003000000001, -2.5499989999999997, -0.3700030000000041, 1.3100019999999972, 4-13-2009
2.1799999999999997, 1.3100019999999972, -0.16999799999999965, -0.38000100000000003, 4-14-2009
2.0599970000000027, -0.38000100000000003, 0.6399990000000031, 3.119999, 4-15-2009
3.6600000000000037, 3.119999, 2.4799989999999994, 0.5700000000000003, 4-16-2009
2.480004000000001, 0.5700000000000003, -1.7099989999999963, 0.9599989999999963, 4-17-2009
2.5499989999999997, 0.9599989999999963, -0.879997000000003, 1.8499980000000065, 4-18-2009
2.869999, 1.8499980000000065, -0.029998000000006186, 2.379997000000003, 4-19-2009
3.7099990000000034, 2.379997000000003, 0.33000199999999325, -2.5899999999999963, 4-20-2009
4.159999000000006, -2.5899999999999963, 0.029998000000006186, 2.57000399999999, 4-21-2009
3.370003000000004, 2.57000399999999, 0.22999599999999987, 5.730003000000011, 5-1-2009
5.880004999999997, 5.730003000000011, -0.3400040000000075, -0.6899949999999961, 5-2-2009
3.2200009999999963, -0.6899949999999961, 1.8499989999999968, 4.669998000000007, 5-3-2009
5.370002999999997, 4.669998000000007, 0.3000029999999896, -4.31000499999999, 5-4-2009
6.660004000000001, -4.31000499999999, 1.3700019999999995, 1.9800039999999939, 5-5-2009
3.230003999999994, 1.9800039999999939, -1.5400010000000037, -1.5999989999999968, 5-6-2009
2.619995000000003, -1.5999989999999968, 1.2299959999999999, -1.7099989999999963, 5-7-2009
4.010002, -1.7099989999999963, -1.9499969999999962, -0.9800030000000106, 5-8-2009
3.4000019999999864, -0.9800030000000106, 0.0, 1.0400010000000037, 5-9-2009
2.75, 1.0400010000000037, -0.44000299999999015, -2.6699980000000068, 5-10-2009
4.309997999999993, -2.6699980000000068, 0.9000020000000006, 1.9000010000000032, 5-11-2009
2.8199989999999957, 1.9000010000000032, 0.1399990000000031, 0.8299949999999967, 5-12-2009
2.360000999999997, 0.8299949999999967, 0.7400049999999965, -0.3199999999999932, 5-13-2009
2.6399999999999864, -0.3199999999999932, -1.1600030000000032, -1.5299990000000037, 5-14-2009
2.4499970000000104, -1.5299990000000037, 0.5400010000000037, -1.0999989999999968, 5-15-2009
1.7700040000000001, -1.0999989999999968, -2.950004000000007, 3.0299990000000037, 5-16-2009
4.0, 3.0299990000000037, 0.20000399999999274, -1.2000039999999927, 5-17-2009
2.4599989999999963, -1.2000039999999927, 0.8500059999999934, 3.489998, 5-18-2009
4.7900009999999895, 3.489998, 0.8599999999999994, -0.27999899999998945, 5-19-2009
1.7399970000000025, -0.27999899999998945, 1.549995999999993, 1.9800029999999964, 5-20-2009
2.729996, 1.9800029999999964, -0.7200009999999963, 0.20999899999999627, 6-1-2009
2.4700010000000105, 0.20999899999999627, -1.379997000000003, -2.260002, 6-2-2009
3.5500029999999896, -2.260002, 0.9300000000000068, -0.29000100000000373, 6-3-2009
2.5, -0.29000100000000373, 1.2799990000000037, -0.9799959999999999, 6-4-2009
2.5699989999999957, -0.9799959999999999, -1.7400049999999965, 1.9299999999999926, 6-5-2009
2.3300009999999958, 1.9299999999999926, 0.4300000000000068, 0.5200049999999976, 6-6-2009
2.0599980000000073, 0.5200049999999976, 0.9099959999999925, -0.3099979999999931, 6-7-2009
2.139999000000003, -0.3099979999999931, 0.23999799999999993, 1.5999979999999994, 6-8-2009
3.3599999999999994, 1.5999979999999994, -0.5599969999999956, 1.0900039999999933, 6-9-2009
2.1700060000000008, 1.0900039999999933, -1.3900000000000006, 0.019997000000003595, 6-10-2009
2.9599990000000105, 0.019997000000003595, 0.5699999999999932, -2.9599989999999963, 6-11-2009
3.760002, -2.9599989999999963, 0.22000099999999634, -0.8300019999999932, 6-12-2009
2.8400040000000075, -0.8300019999999932, -0.02999900000000366, -1.120002999999997, 6-13-2009
2.4799950000000024, -1.120002999999997, 0.7799990000000037, -2.9599989999999963, 6-14-2009
3.6699980000000068, -2.9599989999999963, -1.0700000000000074, -1.369995000000003, 6-15-2009
2.3300009999999958, -1.369995000000003, 0.2699970000000036, -0.45999899999999627, 6-16-2009
2.050003000000004, -0.45999899999999627, 0.22000099999999634, -0.1900020000000069, 6-17-2009
1.5700000000000074, -0.1900020000000069, 0.3000030000000038, 1.009994000000006, 6-18-2009
1.639999000000003, 1.009994000000006, -0.3199990000000099, -0.75, 6-19-2009
1.6900020000000069, -0.75, 0.3500060000000076, -0.9500050000000044, 6-20-2009
2.039994000000007, -0.9500050000000044, -0.19000199999999268, 1.1500010000000032, 6-21-2009
2.0400010000000037, 1.1500010000000032, 0.8199999999999932, -1.6999969999999962, 6-22-2009
2.800003000000004, -1.6999969999999962, -1.389999000000003, -1.4199990000000042, 7-1-2009
1.9499970000000033, -1.4199990000000042, -2.130004999999997, 0.5300030000000007, 7-2-2009
1.4299999999999997, 0.5300030000000007, 0.1599999999999966, -2.2099989999999963, 7-3-2009
2.3399999999999963, -2.2099989999999963, 0.05999700000000274, 1.130001, 7-4-2009
2.0299990000000037, 1.130001, 0.5200009999999935, 0.32999800000000334, 7-5-2009
1.610000999999997, 0.32999800000000334, -1.0799980000000033, 0.9599990000000034, 7-6-2009
1.9700010000000034, 0.9599990000000034, -0.04999899999999968, 1.380001, 7-7-2009
2.4799990000000065, 1.380001, 0.6999970000000033, 0.1399990000000031, 7-8-2009
1.4500009999999932, 0.1399990000000031, 0.7000049999999902, 1.1099999999999994, 7-9-2009
1.7400050000000107, 1.1099999999999994, -0.6000059999999934, 3.370002999999997, 7-10-2009
3.9199979999999925, 3.370002999999997, -0.6100009999999969, 0.9499969999999962, 7-11-2009
2.0800020000000075, 0.9499969999999962, 0.870002999999997, 1.8400040000000075, 7-12-2009
2.0, 1.8400040000000075, 0.8399959999999993, -0.5500030000000038, 7-13-2009
2.2900010000000037, -0.5500030000000038, -0.379997000000003, -0.8099969999999956, 7-14-2009
1.4700009999999963, -0.8099969999999956, 0.0, 2.4099959999999925, 7-15-2009
2.7799990000000037, 2.4099959999999925, -0.29999599999999305, 1.1800000000000068, 7-16-2009
1.4599990000000105, 1.1800000000000068, 0.15999599999999248, -0.5499949999999956, 7-17-2009
0.9599989999999963, -0.5499949999999956, -0.9700010000000105, 0.11000000000001364, 7-18-2009
2.630004999999997, 0.11000000000001364, -1.1300040000000138, -1.4099959999999925, 7-19-2009
2.199996999999996, -1.4099959999999925, 1.5499949999999956, 0.45000500000000443, 7-20-2009
2.760002, 0.45000500000000443, -0.45000500000000443, 1.5800020000000075, 7-21-2009
3.0899959999999993, 1.5800020000000075, 1.1699979999999925, 1.4500050000000044, 7-22-2009
2.4900050000000107, 1.4500050000000044, -0.5700000000000074, 1.369995000000003, 8-1-2009
2.2799990000000037, 1.369995000000003, 0.09000400000000752, 0.47999599999999987, 8-2-2009
2.0, 0.47999599999999987, 0.7700040000000001, -0.5700000000000074, 8-3-2009
2.6400000000000006, -0.5700000000000074, 0.36999500000000296, -3.859993000000003, 8-4-2009
5.140000000000001, -3.859993000000003, -0.10999999999999943, 1.5799939999999992, 8-5-2009
2.3599999999999994, 1.5799939999999992, -0.5099949999999893, -1.9300000000000068, 8-6-2009
2.3199989999999957, -1.9300000000000068, -0.4100040000000007, 0.8400040000000075, 8-7-2009
1.7099999999999937, 0.8400040000000075, 0.08999699999999677, 1.2900009999999895, 8-8-2009
1.5, 1.2900009999999895, 0.01999600000000612, -0.8999939999999924, 8-9-2009
1.889999000000003, -0.8999939999999924, -1.3500060000000076, -1.5, 8-10-2009
2.3199989999999957, -1.5, -0.05999699999999564, 0.5500029999999896, 8-11-2009
1.5500030000000038, 0.5500029999999896, -0.5699999999999932, 2.059997999999993, 8-12-2009
3.480003999999994, 2.059997999999993, 0.05999700000000985, -0.3199990000000099, 8-13-2009
1.4100040000000007, -0.3199990000000099, 0.5900040000000075, 1.639999000000003, 8-14-2009
2.199996999999996, 1.639999000000003, 0.7699969999999894, -0.7299959999999999, 8-15-2009
1.5899960000000135, -0.7299959999999999, 0.3399960000000135, -1.759994000000006, 8-16-2009
2.6700060000000008, -1.759994000000006, -0.6600040000000007, 0.2300029999999964, 8-17-2009
1.619995000000003, 0.2300029999999964, -0.7300029999999964, -0.29000100000000373, 8-18-2009
1.6800010000000043, -0.29000100000000373, 0.9400030000000044, -0.6500020000000006, 8-19-2009
1.9300010000000043, -0.6500020000000006, -1.5, 0.25, 8-20-2009
0.9599989999999963, 0.25, -0.26000200000000007, -1.119995000000003, 8-21-2009
2.550003000000004, -1.119995000000003, 0.02999900000000366, -0.7300039999999939, 9-1-2009
1.1500020000000006, -0.7300039999999939, 0.870002999999997, -1.0299990000000037, 9-2-2009
1.360000999999997, -1.0299990000000037, -0.31000500000000386, 1.0200040000000001, 9-3-2009
2.0, 1.0200040000000001, 2.010002, 1.1599960000000067, 9-4-2009
2.2099989999999963, 1.1599960000000067, 0.18000099999999009, 0.6200020000000137, 9-5-2009
2.120002999999997, 0.6200020000000137, 0.019996999999989384, 2.360000999999997, 9-6-2009
3.120002999999997, 2.360000999999997, 0.36000000000001364, -1.2300030000000106, 9-7-2009
2.7200010000000105, -1.2300030000000106, -0.7199939999999998, 1.859993000000003, 9-8-2009
2.3400039999999933, 1.859993000000003, 0.49000599999999395, 2.2799990000000037, 9-9-2009
2.79999500000001, 2.2799990000000037, 0.6599960000000067, 2.710005999999993, 9-10-2009
3.5199970000000036, 2.710005999999993, -0.19000199999999268, -0.47000100000001055, 9-11-2009
2.3399969999999968, -0.47000100000001055, 0.5400010000000037, -1.25, 9-12-2009
2.4000020000000006, -1.25, -1.5500030000000038, 0.9700010000000105, 9-13-2009
1.9700009999999963, 0.9700010000000105, 1.130004999999997, 1.619995000000003, 9-14-2009
2.400001000000003, 1.619995000000003, 0.0, -1.8200000000000074, 9-15-2009
2.3400040000000075, -1.8200000000000074, -0.15999599999999248, -2.0, 9-16-2009
3.619995000000003, -2.0, -0.1900020000000069, -0.91999899999999, 9-17-2009
2.5400010000000037, -0.91999899999999, 0.4099959999999925, 0.7799990000000037, 9-18-2009
1.3399959999999993, 0.7799990000000037, -0.12999700000000303, 1.639999000000003, 9-19-2009
2.9399939999999987, 1.639999000000003, 0.6800009999999901, 1.1900020000000069, 9-20-2009
3.0800019999999932, 1.1900020000000069, 0.06999999999999318, -2.5299989999999895, 9-21-2009
2.6699979999999925, -2.5299989999999895, -1.3200000000000074, 1.0299990000000037, 10-1-2009
1.9300000000000068, 1.0299990000000037, -0.010002000000000066, 1.760002, 10-2-2009
2.7799990000000037, 1.760002, 1.1400000000000006, 0.9299999999999926, 10-3-2009
1.81999900000001, 0.9299999999999926, -0.15000199999998642, 0.27999899999998945, 10-4-2009
2.120002999999997, 0.27999899999998945, 0.5299990000000037, 4.450004000000007, 10-5-2009
5.0, 4.450004000000007, -0.5200040000000001, 0.4299999999999926, 10-6-2009
2.650001000000003, 0.4299999999999926, 1.4599999999999937, -0.47999599999999987, 10-7-2009
1.6300040000000138, -0.47999599999999987, 0.04999500000000978, -1.0, 10-8-2009
2.7299950000000024, -1.0, 1.3900000000000006, 0.4200050000000033, 10-9-2009
1.9000020000000006, 0.4200050000000033, -0.58000100000001, 2.279998000000006, 10-10-2009
2.629997000000003, 2.279998000000006, -0.22000099999999634, -0.11000000000001364, 10-11-2009
1.7799989999999895, -0.11000000000001364, -0.25, 1.7900000000000063, 10-12-2009
1.9700010000000105, 1.7900000000000063, 0.16999900000000423, -0.1099930000000029, 10-13-2009
1.9000020000000006, -0.1099930000000029, -0.7700049999999976, -0.6999969999999962, 10-14-2009
3.0100029999999975, -0.6999969999999962, -2.3400040000000075, 0.8499989999999968, 10-15-2009
2.3999940000000066, 0.8499989999999968, 0.6900020000000069, -2.9799950000000024, 10-16-2009
3.9699930000000023, -2.9799950000000024, 0.1799919999999986, -2.4799950000000024, 10-17-2009
5.019996999999989, -2.4799950000000024, 0.8399959999999993, -0.9299999999999926, 10-18-2009
2.139999000000003, -0.9299999999999926, -0.6899950000000104, -1.8100049999999896, 10-19-2009
2.939994999999996, -1.8100049999999896, 0.880004999999997, 0.6899939999999987, 10-20-2009
1.9000010000000032, 0.6899939999999987, -0.029998000000006186, -4.149993999999992, 10-21-2009
4.93000099999999, -4.149993999999992, 0.07999399999999923, 0.2300029999999964, 10-22-2009
2.939994999999996, 0.2300029999999964, -0.8199989999999957, 1.8499979999999994, 11-1-2009
2.760002, 1.8499979999999994, 1.7300029999999964, 0.5700000000000074, 11-2-2009
2.7000050000000044, 0.5700000000000074, 0.5399929999999955, 2.1900030000000044, 11-3-2009
3.7200010000000105, 2.1900030000000044, 2.400001000000003, -0.08000200000000746, 11-4-2009
2.879997000000003, -0.08000200000000746, -0.3399959999999993, 2.3900000000000006, 11-5-2009
2.569999999999993, 2.3900000000000006, -0.29000100000000373, -0.9300009999999901, 11-6-2009
2.740005999999994, -0.9300009999999901, 0.7799989999999895, -1.7099989999999963, 11-7-2009
2.5699989999999957, -1.7099989999999963, -0.3099979999999931, -1.08000100000001, 11-8-2009
3.150001000000003, -1.08000100000001, -0.19000299999999015, -0.16999800000000675, 11-9-2009
1.8400040000000075, -0.16999800000000675, 1.7900010000000037, 0.23999799999999993, 11-10-2009
1.610000999999997, 0.23999799999999993, -0.40000200000000063, -0.14999400000000662, 11-11-2009
1.4100040000000007, -0.14999400000000662, 0.29999600000000726, -1.5400010000000037, 11-12-2009
2.599998999999997, -1.5400010000000037, -0.7599950000000035, -1.0600049999999896, 11-13-2009
2.25, -1.0600049999999896, -0.6500010000000032, 0.20000399999999274, 11-14-2009
1.5400009999999895, 0.20000399999999274, 1.8300020000000075, -0.12000299999999697, 11-15-2009
1.7100059999999928, -0.12000299999999697, 0.18000099999999009, 0.1900020000000069, 11-16-2009
1.7099989999999963, 0.1900020000000069, 0.15999599999999248, 1.0, 11-17-2009
2.1499939999999924, 1.0, -3.2999949999999956, 0.8199989999999957, 11-18-2009
2.4199979999999925, 0.8199989999999957, -1.0300060000000002, 0.29000100000000373, 11-19-2009
2.109993000000003, 0.29000100000000373, 1.120002999999997, 0.6800000000000068, 11-20-2009
2.0, 0.6800000000000068, -0.15000200000000063, -1.0500030000000038, 12-1-2009
2.0900040000000075, -1.0500030000000038, -0.11999500000000296, -0.10999999999999943, 12-2-2009
1.7200019999999938, -0.10999999999999943, 1.3700019999999995, -1.1600030000000032, 12-3-2009
4.5400009999999895, -1.1600030000000032, -0.2900009999999895, 0.48999799999999993, 12-4-2009
2.7900009999999895, 0.48999799999999993, -0.43999500000001035, -1.5800019999999932, 12-5-2009
1.9600070000000045, -1.5800019999999932, 0.48999799999999993, -0.049995999999993046, 12-6-2009
2.4599989999999963, -0.049995999999993046, -0.09000400000000752, 1.0700000000000074, 12-7-2009
1.9400030000000044, 1.0700000000000074, 0.3400039999999933, -0.9599989999999963, 12-8-2009
1.510002, -0.9599989999999963, 4.119995000000003, 0.22000099999999634, 12-9-2009
1.9899970000000025, 0.22000099999999634, -0.379997000000003, 1.7900010000000037, 12-10-2009
2.059997999999993, 1.7900010000000037, 0.4299999999999926, 1.0799949999999967, 12-11-2009
2.309997999999993, 1.0799949999999967, -0.09999899999999684, -0.6799999999999926, 12-12-2009
3.189994999999996, -0.6799999999999926, 0.9899979999999999, -0.5700000000000074, 12-13-2009
1.8499979999999994, -0.5700000000000074, 0.880004999999997, 0.8600000000000136, 12-14-2009
1.4099960000000067, 0.8600000000000136, 0.8799979999999863, 2.1999970000000104, 12-15-2009
2.949996999999996, 2.1999970000000104, 0.020004000000000133, 2.0999979999999994, 12-16-2009
2.260002, 2.0999979999999994, 0.09000399999999331, 0.5999989999999968, 12-17-2009
1.9299999999999926, 0.5999989999999968, 1.1800000000000068, -1.8300019999999932, 12-18-2009
2.2300029999999964, -1.8300019999999932, 0.23999799999999993, -0.9000010000000032, 12-19-2009
2.3000029999999896, -0.9000010000000032, 0.010002000000000066, -0.47000100000001055, 12-20-2009
1.2699969999999894, -0.47000100000001055, 0.010002000000000066, -1.5199969999999894, 12-21-2009
1.200004000000007, 1.0299990000000037, -1.369995000000003, 0.14000000000000057, 1-1-2010
2.2099989999999963, 0.14000000000000057, -0.31000600000000134, 0.6400069999999971, 1-2-2010
2.020004, 0.6400069999999971, -0.5900039999999933, -0.3399959999999993, 1-3-2010
1.610000999999997, -0.3399959999999993, -0.8200000000000074, 1.3200000000000074, 1-4-2010
3.0, 1.3200000000000074, 0.5299989999999895, -1.4400029999999902, 1-5-2010
2.7900009999999895, -1.4400029999999902, -2.379997000000003, -0.3400039999999933, 1-6-2010
1.9399939999999987, -0.3400039999999933, -0.23999799999999993, 2.5800019999999932, 1-7-2010
4.110000999999997, 2.5800019999999932, -0.08000199999999325, 0.3199999999999932, 1-8-2010
1.260002, 0.3199999999999932, 0.0, -1.129997000000003, 1-9-2010
2.199996999999996, -1.129997000000003, -0.5500030000000038, 1.0299980000000062, 1-10-2010
1.5199960000000061, 1.0299980000000062, -1.5299980000000062, 0.5100020000000001, 1-11-2010
1.2799990000000037, 0.5100020000000001, 0.23999799999999993, 0.01999600000000612, 1-12-2010
2.2699969999999894, 0.01999600000000612, -0.3199989999999957, -2.219994, 1-13-2010
3.4200050000000033, -2.219994, 0.8099979999999931, 0.10999999999999943, 1-14-2010
1.5199960000000061, 0.10999999999999943, -1.010002, -0.8199999999999932, 1-15-2010
2.6299979999999863, -0.8199999999999932, -0.9099960000000067, 0.1599960000000067, 1-16-2010
3.720001999999994, 0.1599960000000067, 0.620002999999997, -1.5, 1-17-2010
3.769996000000006, -1.5, 0.25999500000000353, -1.3499989999999968, 1-18-2010
4.659996000000007, -1.3499989999999968, 0.8400039999999933, 4.290001000000004, 1-19-2010
4.410004000000001, 4.290001000000004, 0.2899929999999955, 1.1900030000000044, 2-1-2010
2.9599989999999963, 1.1900030000000044, -0.869995000000003, 1.0399929999999955, 2-2-2010
2.1600030000000032, 1.0399929999999955, -1.4299999999999926, -2.869995000000003, 2-3-2010
3.260002, -2.869995000000003, 0.0, -0.04000100000000373, 2-4-2010
3.3599999999999994, -0.04000100000000373, -0.3199999999999932, -0.9599990000000105, 2-5-2010
2.860000999999997, -0.9599990000000105, 1.4499970000000104, 1.510002, 2-6-2010
2.9200060000000008, 1.510002, -3.9100040000000007, -2.389999000000003, 2-7-2010
4.209998999999996, -2.389999000000003, -0.3199999999999932, 3.1399999999999864, 2-8-2010
3.380004999999997, 3.1399999999999864, -1.5799949999999967, 1.5, 2-9-2010
2.6400000000000006, 1.5, 1.6699990000000042, 0.16999799999999254, 2-10-2010
1.6000059999999934, 0.16999799999999254, 0.2799980000000062, -0.23999700000000246, 2-11-2010
1.0799949999999967, -0.23999700000000246, -0.44000299999999015, 1.9199979999999925, 2-12-2010
2.7099989999999963, 1.9199979999999925, -0.4699930000000023, 0.7699960000000061, 2-13-2010
2.050003000000004, 0.7699960000000061, 0.5800019999999932, -3.1099999999999994, 2-14-2010
3.4199979999999925, -3.1099999999999994, -0.7099989999999963, -1.489998, 2-15-2010
2.349998999999997, -1.489998, 1.5, 1.2699960000000061, 2-16-2010
2.1600030000000032, 1.2699960000000061, -2.019996000000006, 2.5599969999999956, 2-17-2010
3.380004999999997, 2.5599969999999956, 0.3200000000000074, 0.5100020000000001, 2-18-2010
1.9799950000000024, 0.5100020000000001, 0.41999799999999254, 0.1800010000000043, 2-19-2010
1.3200000000000074, 0.1800010000000043, 0.5100020000000001, -0.33000200000000746, 3-1-2010
1.5699989999999957, -0.33000200000000746, 0.629997000000003, 0.3600009999999969, 3-2-2010
1.5400009999999895, 0.3600009999999969, 0.22000100000001055, -0.8400040000000075, 3-3-2010
2.1100000000000136, -0.8400040000000075, 0.75, 1.4300000000000068, 3-4-2010
2.2099989999999963, 1.4300000000000068, -0.23999799999999993, 0.23000399999999388, 3-5-2010
1.2200009999999963, 0.23000399999999388, -0.8500059999999934, 1.5300060000000002, 3-6-2010
2.760002, 1.5300060000000002, -0.1600040000000007, 0.9499969999999962, 3-7-2010
1.9599989999999963, 0.9499969999999962, -0.21999300000000233, -0.8400039999999933, 3-8-2010
1.8100050000000039, -0.8400039999999933, 1.0599969999999956, -1.259994000000006, 3-9-2010
1.8600000000000136, -1.259994000000006, -0.26000200000000007, -0.4300009999999901, 3-10-2010
2.129997000000003, -0.4300009999999901, 0.5999989999999968, -1.0099950000000035, 3-11-2010
1.5199970000000036, -1.0099950000000035, 0.2899940000000072, -0.9599990000000105, 3-12-2010
2.2900010000000037, -0.9599990000000105, 0.24000500000001068, -2.770004, 3-13-2010
4.040001000000004, -2.770004, -1.5800020000000075, 0.0, 3-14-2010
4.020004999999998, 0.0, -0.9399949999999961, 0.7399979999999999, 3-15-2010
3.0400010000000037, 0.7399979999999999, 0.2300029999999964, 2.4099960000000067, 3-16-2010
2.739998, 2.4099960000000067, -0.9899970000000025, -0.5800020000000075, 3-17-2010
2.349998999999997, -0.5800020000000075, 0.7200010000000105, -3.870002999999997, 3-18-2010
4.790001000000004, -3.870002999999997, 0.25, -0.08000200000000746, 3-19-2010
2.139999000000003, -0.08000200000000746, 2.0200049999999976, 1.3499979999999994, 3-20-2010
1.5299980000000062, 1.3499979999999994, -0.04000099999998952, 0.41999799999999254, 3-21-2010
1.4700010000000105, 0.41999799999999254, 0.1600040000000007, -0.5599979999999931, 3-22-2010
1.3300019999999932, -0.5599979999999931, 1.0899969999999968, 1.5500029999999896, 3-23-2010
1.5999989999999968, 1.5500029999999896, 0.5800020000000075, 1.609993000000003, 4-1-2010
2.5299990000000037, 1.609993000000003, -0.1599960000000067, -0.23000399999999388, 4-2-2010
1.5100029999999975, -0.23000399999999388, 3.0400010000000037, 3.319999999999993, 4-3-2010
5.360000999999997, 3.319999999999993, 0.1900020000000069, 3.0299989999999895, 4-4-2010
4.040001000000004, 3.0299989999999895, 0.370002999999997, -2.5600049999999896, 4-5-2010
3.520004, -2.5600049999999896, -0.18999500000001035, 2.5999980000000136, 4-6-2010
3.389999000000003, 2.5999980000000136, -0.22000100000001055, 0.41999800000000675, 4-7-2010
3.230003999999994, 0.41999800000000675, 1.4500049999999902, 0.4599990000000105, 4-8-2010
2.1300040000000138, 0.4599990000000105, 0.0899959999999993, 1.120002999999997, 4-9-2010
2.25, 1.120002999999997, -0.9400020000000069, -2.0899969999999968, 4-10-2010
3.059997999999993, -2.0899969999999968, -1.010002, 1.5299990000000037, 4-11-2010
2.099998999999997, 1.5299990000000037, 0.8899990000000031, 2.630004999999997, 4-12-2010
2.7900010000000037, 2.630004999999997, -0.20000400000000695, 0.5600050000000039, 4-13-2010
1.7700040000000001, 0.5600050000000039, -0.9000020000000006, 2.0400010000000037, 4-14-2010
3.3599999999999994, 2.0400010000000037, -0.8599999999999994, 1.5699989999999957, 4-15-2010
2.7900010000000037, 1.5699989999999957, 0.22999599999999987, -1.4699939999999998, 4-16-2010
2.4299999999999926, -1.4699939999999998, -0.4299999999999926, -3.4200060000000008, 4-17-2010
4.690003000000004, -3.4200060000000008, 0.7600020000000001, 0.02999900000000366, 4-18-2010
2.31999900000001, 0.02999900000000366, 0.7700040000000001, 1.0699999999999932, 4-19-2010
2.41999899999999, 1.0699999999999932, 0.27999900000000366, 0.5800019999999932, 4-20-2010
4.389999000000003, 0.5800019999999932, 0.6999969999999962, 0.7399979999999999, 4-21-2010
3.860000999999997, 0.7399979999999999, -4.209999999999994, 0.8900000000000006, 5-1-2010
5.110000999999997, 0.8900000000000006, -2.239998, -2.8300019999999932, 5-2-2010
4.670005000000003, -2.8300019999999932, -0.7699960000000061, -2.0299990000000037, 5-3-2010
8.900001000000003, -2.0299990000000037, -0.5500030000000038, -0.9800039999999939, 5-4-2010
5.629997999999986, -0.9800039999999939, 1.8300020000000075, 3.819999999999993, 5-5-2010
6.19999700000001, 3.819999999999993, -1.5099950000000035, -0.24000499999999647, 5-6-2010
1.5600060000000013, -0.24000499999999647, 0.26000200000000007, 3.379997000000003, 5-7-2010
3.739998, 3.379997000000003, -0.2699960000000061, -0.02999900000000366, 5-8-2010
2.5100029999999975, -0.02999900000000366, -1.1399999999999864, -0.8500060000000076, 5-9-2010
4.209998999999996, -0.8500060000000076, 0.0700080000000014, -2.9300010000000043, 5-10-2010
6.3300020000000075, -2.9300010000000043, 1.7599950000000035, -2.1500020000000006, 5-11-2010
3.4499970000000104, -2.1500020000000006, -0.3199989999999957, -0.2899940000000072, 5-12-2010
4.640006999999997, -0.2899940000000072, -2.5900039999999933, -3.3499979999999994, 5-13-2010
3.75, -3.3499979999999994, -1.9100040000000007, 6.209998999999996, 5-14-2010
7.380004999999997, 6.209998999999996, -0.9599989999999963, -2.269996000000006, 5-15-2010
3.809997999999993, -2.269996000000006, -3.860000999999997, 5.209998999999996, 5-16-2010
5.5, 5.209998999999996, 1.3099980000000073, -0.27999900000000366, 5-17-2010
2.4899970000000025, -0.27999900000000366, 2.2300029999999964, 4.540001000000004, 5-18-2010
5.270004, 4.540001000000004, -0.4800029999999964, -1.1900030000000044, 5-19-2010
3.720001999999994, -1.1900030000000044, -1.25, -2.759994000000006, 5-20-2010
4.400002000000001, -2.759994000000006, 1.2699960000000061, 5.650002000000001, 6-1-2010
6.930000000000007, 5.650002000000001, -0.27999900000000366, 2.260002, 6-2-2010
4.790001000000004, 2.260002, -1.9299999999999926, -4.810005000000004, 6-3-2010
8.659995999999992, -4.810005000000004, 0.5699999999999932, -2.41999899999999, 6-4-2010
6.819999999999993, -2.41999899999999, 1.370002999999997, 2.849998999999997, 6-5-2010
4.690003000000004, 2.849998999999997, 0.8199990000000099, -2.3700020000000137, 6-6-2010
5.450005000000004, -2.3700020000000137, 2.010002, 2.9499970000000104, 6-7-2010
3.050003000000004, 2.9499970000000104, -0.7799990000000037, 1.870002999999997, 6-8-2010
2.9600070000000045, 1.870002999999997, 1.08000100000001, -1.9900050000000107, 6-9-2010
3.5200049999999976, -1.9900050000000107, 1.6600040000000007, -0.25, 6-10-2010
2.1800010000000043, -0.25, -0.91999899999999, 0.9499969999999962, 6-11-2010
2.6899950000000104, 0.9499969999999962, 0.02999900000000366, -0.36000000000001364, 6-12-2010
2.6200019999999995, -0.36000000000001364, -0.05999799999999311, 0.22000099999999634, 6-13-2010
1.5700000000000074, 0.22000099999999634, 1.7799990000000037, -1.389999000000003, 6-14-2010
4.380004999999997, -1.389999000000003, 0.0, -4.160004000000001, 6-15-2010
5.540000000000006, -4.160004000000001, 0.12000299999999697, 0.2699960000000061, 6-16-2010
2.6599960000000067, 0.2699960000000061, -1.0199960000000061, -1.2300039999999939, 6-17-2010
4.239998, -1.2300039999999939, 1.6500020000000006, 3.5400010000000037, 6-18-2010
5.359999999999999, 3.5400010000000037, -0.8399969999999968, -3.520004, 6-19-2010
4.629997999999986, -3.520004, -2.0899960000000135, -3.0900039999999933, 6-20-2010
4.230002999999996, -3.0900039999999933, 0.020004000000000133, -1.889999000000003, 6-21-2010
3.2999949999999956, -1.889999000000003, 0.14999400000000662, 0.5600049999999896, 6-22-2010
4.200003999999993, 0.5600049999999896, -0.38999999999998636, -0.3500060000000076, 7-1-2010
3.0800020000000075, -0.3500060000000076, 2.0, -0.48999799999999993, 7-2-2010
3.9299999999999926, -0.48999799999999993, 0.2700049999999976, 3.680000000000007, 7-3-2010
4.589996999999997, 3.680000000000007, 1.0799939999999992, 1.3400039999999933, 7-4-2010
3.050003000000004, 1.3400039999999933, -0.33000199999999325, -0.3199990000000099, 7-5-2010
2.639999000000003, -0.3199990000000099, -0.2699969999999894, 0.23999799999999993, 7-6-2010
1.9199979999999925, 0.23999799999999993, 1.4499969999999962, -0.18000000000000682, 7-7-2010
1.8099979999999931, -0.18000000000000682, -0.6999969999999962, 0.5299980000000062, 7-8-2010
3.3099969999999956, 0.5299980000000062, 0.3600009999999969, -0.8099979999999931, 7-9-2010
3.069999999999993, -0.8099979999999931, -1.06999900000001, -2.8400039999999933, 7-10-2010
4.400002000000001, -2.8400039999999933, 0.40000100000000316, -0.6699980000000068, 7-11-2010
2.849998999999997, -0.6699980000000068, -1.5299990000000037, 3.6699990000000042, 7-12-2010
4.479996, 3.6699990000000042, 0.379997000000003, -2.110000999999997, 7-13-2010
3.1099999999999994, -2.110000999999997, 1.4299999999999926, -0.6500010000000032, 7-14-2010
1.9700009999999963, -0.6500010000000032, -0.4099959999999925, -0.4599990000000105, 7-15-2010
2.620002999999997, -0.4599990000000105, -0.12000299999999697, 1.510002, 7-16-2010
2.2099990000000105, 1.510002, 0.14000000000000057, -3.300003000000004, 7-17-2010
4.83000100000001, -3.300003000000004, 0.3700020000000137, -0.3700020000000137, 7-18-2010
1.8400039999999933, -0.3700020000000137, 1.1700050000000033, -1.1500010000000032, 7-19-2010
2.5499960000000073, -1.1500010000000032, -1.0, -2.0800019999999932, 7-20-2010
3.8400039999999933, -2.0800019999999932, 1.8099979999999931, 3.200004000000007, 7-21-2010
3.7900000000000063, 3.200004000000007, -0.20999899999999627, -0.6000060000000076, 8-1-2010
1.6500010000000032, -0.6000060000000076, 0.3600009999999969, 0.9400020000000069, 8-2-2010
2.2300029999999964, 0.9400020000000069, -0.75, 0.1900020000000069, 8-3-2010
1.7799990000000037, 0.1900020000000069, -5.990005000000011, 2.810005000000004, 8-4-2010
4.480002999999996, 2.810005000000004, 0.9099960000000067, -0.22999599999999987, 8-5-2010
2.4899970000000025, -0.22999599999999987, -1.139999000000003, 1.8999939999999924, 8-6-2010
2.9200060000000008, 1.8999939999999924, -2.110000999999997, -1.4399939999999987, 8-7-2010
2.4499970000000104, -1.4399939999999987, -1.7600029999999975, -0.029998000000006186, 8-8-2010
2.8300019999999932, -0.029998000000006186, -0.050003000000003794, -1.1399999999999864, 8-9-2010
2.2200010000000105, -1.1399999999999864, -0.6800000000000068, 0.5999979999999994, 8-10-2010
2.08000100000001, 0.5999979999999994, 0.9800039999999939, 0.09000400000000752, 8-11-2010
1.8099969999999956, 0.09000400000000752, -0.3900069999999971, -1.4199990000000042, 8-12-2010
3.0400010000000037, -1.4199990000000042, -0.35999999999999943, -1.4700009999999963, 8-13-2010
2.4699930000000023, -1.4700009999999963, -0.25999500000000353, 0.1599960000000067, 8-14-2010
1.2699969999999894, 0.1599960000000067, 0.20999899999999627, 0.10000599999999338, 8-15-2010
1.5599979999999931, 0.10000599999999338, -1.4299999999999926, -1.6900020000000069, 8-16-2010
2.9400019999999927, -1.6900020000000069, -0.6999969999999962, -0.45000500000000443, 8-17-2010
2.5600049999999896, -0.45000500000000443, 0.620002999999997, -1.4599989999999963, 8-18-2010
2.8399969999999968, -1.4599989999999963, 0.9300000000000068, 1.8499989999999968, 8-19-2010
3.809997999999993, 1.8499989999999968, -0.1600040000000007, -1.6800000000000068, 8-20-2010
2.400001000000003, -1.6800000000000068, -0.4099959999999925, -0.27999900000000366, 8-21-2010
2.4099959999999925, -0.27999900000000366, 1.4099960000000067, 1.6600030000000032, 8-22-2010
2.7699969999999894, 1.6600030000000032, 0.13999999999998636, -0.5900039999999933, 9-1-2010
1.6399999999999864, -0.5900039999999933, 0.8400039999999933, 0.0, 9-2-2010
1.5899959999999993, 0.0, -1.0699999999999932, -0.5500030000000038, 9-3-2010
1.5500030000000038, -0.5500030000000038, 0.010002000000000066, 1.5499960000000073, 9-4-2010
1.9099960000000067, 1.5499960000000073, 1.1700050000000033, -2.06999900000001, 9-5-2010
2.9800029999999964, -2.06999900000001, 0.25, 2.5799939999999992, 9-6-2010
2.939994999999996, 2.5799939999999992, 0.9500050000000044, -0.8600009999999969, 9-7-2010
1.5100029999999975, -0.8600009999999969, -0.41999800000000675, 0.32999399999999923, 9-8-2010
1.8399959999999993, 0.32999399999999923, -0.45999899999999627, -0.1599960000000067, 9-9-2010
1.4199990000000042, -0.1599960000000067, 0.6100000000000136, -1.1900020000000069, 9-10-2010
2.2599949999999893, -1.1900020000000069, 0.08000199999999325, -1.9700009999999963, 9-11-2010
3.240005999999994, -1.9700009999999963, 0.30999700000000985, -1.6899950000000104, 9-12-2010
2.5200049999999976, -1.6899950000000104, 0.2699970000000036, 1.620002999999997, 9-13-2010
2.9800029999999964, 1.620002999999997, 0.07999399999999923, 0.6600040000000007, 9-14-2010
1.2300030000000106, 0.6600040000000007, -1.0599979999999931, 0.36999500000000296, 9-15-2010
2.1500020000000006, 0.36999500000000296, 1.4700009999999963, 0.9700019999999938, 9-16-2010
2.810005000000004, 0.9700019999999938, 0.12999700000000303, -0.9899979999999999, 9-17-2010
1.7799989999999895, -0.9899979999999999, 0.1100009999999969, 0.41999800000000675, 9-18-2010
1.9000010000000032, 0.41999800000000675, -0.7699970000000036, 2.809997999999993, 9-19-2010
3.180000000000007, 2.809997999999993, 0.6600030000000032, -1.510002, 9-20-2010
3.139999000000003, -1.510002, 1.1400000000000006, 2.05999700000001, 9-21-2010
2.609993000000003, 2.05999700000001, -0.7999950000000098, 0.34999799999999937, 10-1-2010
1.6699979999999925, 0.34999799999999937, 1.0400010000000037, 0.5699999999999932, 10-2-2010
2.3300019999999932, 0.5699999999999932, -0.06000499999998965, 1.25, 10-3-2010
2.239998, 1.25, 0.49000499999999647, -0.45000400000000695, 10-4-2010
1.4499969999999962, -0.45000400000000695, 0.12000200000001371, 0.7799989999999895, 10-5-2010
1.8499989999999968, 0.7799989999999895, -0.45999899999999627, 0.5599979999999931, 10-6-2010
1.8499979999999994, 0.5599979999999931, -0.6800009999999901, 0.030006999999997674, 10-7-2010
1.6500010000000032, 0.030006999999997674, 0.7999949999999956, -0.9599989999999963, 10-8-2010
1.880004999999997, -0.9599989999999963, -0.879997000000003, 1.139999000000003, 10-9-2010
1.869995000000003, 1.139999000000003, 0.6899949999999961, 0.3400040000000075, 10-10-2010
1.6799999999999926, 0.3400040000000075, -0.16999800000000675, 1.4599989999999963, 10-11-2010
2.5, 1.4599989999999963, -1.5500029999999896, -0.29999600000000726, 10-12-2010
1.5599969999999956, -0.29999600000000726, 0.07999499999999671, 0.5600050000000039, 10-13-2010
1.6599959999999925, 0.5600050000000039, 0.32999399999999923, -1.6499939999999924, 10-14-2010
4.0, -1.6499939999999924, 0.6699979999999925, -2.1600030000000032, 10-15-2010
2.9900049999999965, -2.1600030000000032, 0.7200010000000105, -0.5700000000000074, 10-16-2010
1.7999950000000098, -0.5700000000000074, -0.5999979999999994, -1.110000999999997, 10-17-2010
2.5, -1.110000999999997, -0.8300019999999932, 0.8400039999999933, 10-18-2010
2.239998, 0.8400039999999933, 0.629997000000003, -1.4499969999999962, 10-19-2010
2.5700080000000014, -1.4499969999999962, -0.4200050000000033, 1.2000039999999927, 10-20-2010
1.8900000000000006, 1.2000039999999927, 1.1599960000000067, -0.8099970000000098, 10-21-2010
2.550003000000004, -0.8099970000000098, 1.0999980000000136, 0.5699999999999932, 11-1-2010
2.5, 0.5699999999999932, -7.25, -1.8499989999999968, 11-2-2010
4.5, -1.8499989999999968, 1.120002999999997, -1.4700009999999963, 11-3-2010
3.450004000000007, -1.4700009999999963, 0.370002999999997, -0.050003000000003794, 11-4-2010
1.860000999999997, -0.050003000000003794, 0.5999979999999994, 0.25, 11-5-2010
2.5899959999999993, 0.25, 0.6800000000000068, 1.8499989999999968, 11-6-2010
2.949996999999996, 1.8499989999999968, 0.42000600000000077, 1.4699930000000023, 11-7-2010
2.019996000000006, 1.4699930000000023, -0.6599960000000067, 0.8900000000000006, 11-8-2010
1.7799990000000037, 0.8900000000000006, -1.0, -1.0599979999999931, 11-9-2010
2.219994, -1.0599979999999931, 1.4499969999999962, -1.0699999999999932, 11-10-2010
2.139999000000003, -1.0699999999999932, -1.010002, -0.36999500000000296, 11-11-2010
1.8200000000000074, -0.36999500000000296, 0.22999599999999987, -1.110000999999997, 11-12-2010
1.9399950000000104, -1.110000999999997, 0.3400039999999933, 1.5999989999999968, 11-13-2010
2.6699979999999925, 1.5999989999999968, -0.45999899999999627, 1.3099969999999956, 11-14-2010
1.93000099999999, 1.3099969999999956, -0.2699969999999894, -0.1900020000000069, 11-15-2010
2.6499940000000066, -0.1900020000000069, -1.3499979999999994, -2.4500050000000044, 11-16-2010
2.699996999999996, -2.4500050000000044, 0.6000060000000076, 0.5, 11-17-2010
1.510002, 0.5, -0.8300020000000075, -0.050002999999989584, 11-18-2010
0.9600070000000045, -0.050002999999989584, -0.27999900000000366, 0.5800019999999932, 11-19-2010
2.019996000000006, 0.5800019999999932, -0.8000029999999896, 0.5299989999999895, 11-20-2010
1.860000999999997, 0.5299989999999895, 1.5400010000000037, 1.139999000000003, 11-21-2010
2.1600030000000032, 1.139999000000003, -0.09999799999999937, 2.3300019999999932, 12-1-2010
2.4599989999999963, 2.3300019999999932, -0.40000200000000063, 0.27999900000000366, 12-2-2010
1.2200009999999963, 0.27999900000000366, -0.18999499999999614, 0.8299939999999992, 12-3-2010
1.1899949999999961, 0.8299939999999992, 1.1700060000000008, -2.8400040000000075, 12-4-2010
3.6399999999999864, -2.8400040000000075, 0.4599990000000105, -0.9700010000000105, 12-5-2010
2.119995000000003, -0.9700010000000105, 0.15000100000000316, -0.11999500000000296, 12-6-2010
1.640006999999997, -0.11999500000000296, -0.3000029999999896, -1.1800000000000068, 12-7-2010
1.6999970000000104, -1.1800000000000068, 0.75, -0.8000030000000038, 12-8-2010
1.9100040000000007, -0.8000030000000038, 0.12000299999999697, 0.8300020000000075, 12-9-2010
1.9099959999999925, 0.8300020000000075, -0.30000400000000127, -1.2299950000000024, 12-10-2010
2.3400040000000075, -1.2299950000000024, 0.04999500000000978, 0.3400039999999933, 12-11-2010
0.9499969999999962, 0.3400039999999933, -0.09999799999999937, 1.259994000000006, 12-12-2010
1.7200010000000105, 1.259994000000006, 0.20000499999999022, -0.4100040000000007, 12-13-2010
2.120002999999997, -0.4100040000000007, 0.27000400000000013, -0.08000099999999577, 12-14-2010
1.360000999999997, -0.08000099999999577, 0.26000200000000007, 0.2899929999999955, 12-15-2010
1.110000999999997, 0.2899929999999955, -1.610000999999997, 0.8600009999999969, 12-16-2010
1.75, 0.8600009999999969, -0.1999969999999962, -1.129997000000003, 12-17-2010
1.9000010000000032, -1.129997000000003, 0.3899990000000031, -0.5299990000000037, 12-18-2010
0.7300039999999939, -0.5299990000000037, 0.48999799999999993, 0.7200010000000105, 12-19-2010
1.5700000000000074, 0.7200010000000105, 0.02999899999998945, 0.5299990000000037, 12-20-2010
1.1899949999999961, 0.5299990000000037, -0.09999799999999937, -0.23999799999999993, 12-21-2010
0.8100050000000039, -0.23999799999999993, 1.0399929999999955, -0.09999899999999684, 12-22-2010
1.2300029999999964, -0.09999899999999684, 0.7300039999999939, -0.9400029999999902, 1-1-2011
1.8900000000000006, -0.9400029999999902, -0.879997000000003, 1.0699999999999932, 1-2-2011
2.1500020000000006, 1.0699999999999932, 1.0199960000000061, -0.5299980000000062, 1-3-2011
2.129997000000003, -0.5299980000000062, 0.4400020000000069, 1.0, 1-4-2011
1.4399939999999987, 1.0, -0.10999999999999943, 0.7999949999999956, 1-5-2011
1.1800000000000068, 0.7999949999999956, 0.4900050000000107, 1.2900009999999895, 1-6-2011
2.0900039999999933, 1.2900009999999895, 0.7599950000000035, 1.0, 1-7-2011
2.3899999999999864, 1.0, -0.25999500000000353, -0.3700019999999995, 1-8-2011
1.5400009999999895, -0.3700019999999995, -0.05999799999999311, 2.7799989999999895, 1-9-2011
3.4599989999999963, 2.7799989999999895, 0.25, 2.04999500000001, 1-10-2011
2.879997000000003, 2.04999500000001, -0.02999900000000366, -1.4099959999999925, 1-11-2011
2.2300029999999964, -1.4099959999999925, -1.6600030000000032, 1.5800019999999932, 1-12-2011
2.2599950000000035, 1.5800019999999932, 0.629997000000003, -0.2699970000000036, 1-13-2011
2.0800019999999932, -0.2699970000000036, -0.370002999999997, 0.38000499999999704, 1-14-2011
1.5199960000000061, 0.38000499999999704, -0.15000100000000316, -1.7099989999999963, 1-15-2011
2.6399999999999864, -1.7099989999999963, 0.509994000000006, 1.9000020000000006, 1-16-2011
2.690002000000007, 1.9000020000000006, -0.36999500000000296, 1.3399959999999993, 1-17-2011
2.4099960000000067, 1.3399959999999993, 0.12000299999999697, -0.8400039999999933, 1-18-2011
2.980003999999994, -0.8400039999999933, 0.20999899999999627, 3.650001000000003, 1-19-2011
3.8400039999999933, 3.650001000000003, 0.33000199999999325, 0.6599960000000067, 1-20-2011
2.4199990000000042, 0.6599960000000067, -0.36999500000000296, 0.22999599999999987, 2-1-2011
1.9500050000000044, 0.22999599999999987, -0.34999899999999684, 0.1600040000000007, 2-2-2011
1.619995000000003, 0.1600040000000007, 0.25, -0.5200040000000001, 2-3-2011
1.7799990000000037, -0.5200040000000001, 0.5800019999999932, -1.7700049999999976, 2-4-2011
3.0299989999999895, -1.7700049999999976, 0.23000399999999388, -1.0599979999999931, 2-5-2011
2.2699969999999894, -1.0599979999999931, -0.45999899999999627, -0.3500060000000076, 2-6-2011
2.559997999999993, -0.3500060000000076, -0.47999599999999987, 0.7699970000000036, 2-7-2011
1.6000060000000076, 0.7699970000000036, -0.4099960000000067, -0.5299989999999895, 2-8-2011
1.4599989999999963, -0.5299989999999895, 0.04999499999999557, 1.5500040000000013, 2-9-2011
3.1800010000000043, 1.5500040000000013, -0.1100009999999969, -1.239998, 2-10-2011
3.029998000000006, -1.239998, 0.5199969999999894, -1.0800019999999932, 2-11-2011
2.4099959999999925, -1.0800019999999932, 0.29000100000000373, 0.9400019999999927, 2-12-2011
2.240005999999994, 0.9400019999999927, 2.619995000000003, 2.050003000000004, 2-13-2011
2.9900050000000107, 2.050003000000004, 0.9700019999999938, -1.5400010000000037, 2-14-2011
3.5400010000000037, -1.5400010000000037, 0.1900020000000069, 5.879997000000003, 2-15-2011
6.229996, 5.879997000000003, 0.1999969999999962, -4.4199979999999925, 2-16-2011
5.369995000000003, -4.4199979999999925, 0.5299989999999895, 1.0500030000000038, 2-17-2011
2.449996999999996, 1.0500030000000038, 0.3399959999999993, 0.2200019999999938, 2-18-2011
1.6899949999999961, 0.2200019999999938, -2.809997999999993, -1.5699999999999932, 2-19-2011
4.31999900000001, -1.5699999999999932, -2.0800020000000075, 2.8400040000000075, 3-1-2011
4.569999999999993, 2.8400040000000075, 0.6199959999999862, 1.7799980000000062, 3-2-2011
3.289994000000007, 1.7799980000000062, -0.2799980000000062, -1.43000099999999, 3-3-2011
3.19000299999999, -1.43000099999999, 0.8600009999999969, -1.6599960000000067, 3-4-2011
3.2099989999999963, -1.6599960000000067, -0.04000099999998952, -2.3400040000000075, 3-5-2011
2.8300020000000075, -2.3400040000000075, -0.05999799999999311, -0.3399959999999993, 3-6-2011
2.430000000000007, -0.3399959999999993, -1.2700040000000001, -1.6999970000000104, 3-7-2011
2.119995000000003, -1.6999970000000104, -0.22000099999999634, 3.0400010000000037, 3-8-2011
4.550003000000004, 3.0400010000000037, -0.5800020000000075, 1.4599990000000105, 3-9-2011
2.9700009999999963, 1.4599990000000105, -3.25, 2.1600030000000032, 3-10-2011
3.8300009999999958, 2.1600030000000032, 0.3600009999999969, -1.3100050000000039, 3-11-2011
4.440002000000007, -1.3100050000000039, 2.2799990000000037, 1.9100030000000032, 3-12-2011
3.2900010000000037, 1.9100030000000032, 1.0800019999999932, -1.8300019999999932, 3-13-2011
3.4099959999999925, -1.8300019999999932, 1.5599979999999931, 1.9100040000000007, 3-14-2011
2.4599989999999963, 1.9100040000000007, 0.9399939999999987, 1.0200049999999976, 3-15-2011
2.4199980000000068, 1.0200049999999976, 0.06999900000000991, 0.6399999999999864, 3-16-2011
2.069999999999993, 0.6399999999999864, 0.8400040000000075, 0.6399990000000031, 3-17-2011
2.6799999999999926, 0.6399990000000031, 0.2699969999999894, 1.7200010000000105, 3-18-2011
3.369995000000003, 1.7200010000000105, -0.7700040000000001, 1.6700050000000033, 3-19-2011
3.370002999999997, 1.6700050000000033, -0.9300000000000068, 2.1599960000000067, 3-20-2011
3.9599989999999963, 2.1599960000000067, 0.630004999999997, -1.110000999999997, 3-21-2011
3.08000100000001, -1.110000999999997, 0.049995999999993046, -0.7299959999999999, 3-22-2011
1.6799999999999926, -0.7299959999999999, 0.6599960000000067, -0.7799990000000037, 3-23-2011
1.4800030000000106, -0.7799990000000037, 0.5100029999999975, -0.5299990000000037, 4-1-2011
1.75, -0.5299990000000037, -0.33000199999999325, -1.120002999999997, 4-2-2011
2.110000999999997, -1.120002999999997, 0.8100049999999896, -2.9200050000000033, 4-3-2011
3.199996999999996, -2.9200050000000033, -0.27999899999998945, 0.13000499999999704, 4-4-2011
2.9199980000000068, 0.13000499999999704, 0.7999949999999956, -0.7999949999999956, 4-5-2011
2.5899959999999993, -0.7999949999999956, -0.10000600000000759, -1.8899999999999864, 4-6-2011
3.1200019999999995, -1.8899999999999864, -1.139999000000003, -2.2999960000000073, 4-7-2011
3.369995000000003, -2.2999960000000073, 0.8599930000000029, 0.5200049999999976, 4-8-2011
2.550003000000004, 0.5200049999999976, -0.9100040000000007, 1.0200040000000001, 4-9-2011
2.5900040000000075, 1.0200040000000001, 0.12999700000000303, 0.19000300000000436, 4-10-2011
2.310005000000004, 0.19000300000000436, -1.3300020000000075, 0.1600040000000007, 4-11-2011
2.5600060000000013, 0.1600040000000007, 0.04000100000000373, -0.44000300000000436, 4-12-2011
1.9000010000000032, -0.44000300000000436, 1.860000999999997, 0.48999799999999993, 4-13-2011
1.5600050000000039, 0.48999799999999993, -0.48999799999999993, 0.5400010000000037, 4-14-2011
1.6800010000000043, 0.5400010000000037, 0.11999500000000296, -1.6500020000000006, 4-15-2011
2.4599990000000105, -1.6500020000000006, 0.40000200000000063, 0.9800029999999964, 4-16-2011
1.7899940000000072, 0.9800029999999964, 0.29000100000000373, -0.25, 4-17-2011
3.0099949999999893, -0.25, -0.15000100000000316, 0.3700019999999995, 4-18-2011
2.7200010000000105, 0.3700019999999995, -0.13000499999999704, 1.2000050000000044, 4-19-2011
2.4700010000000105, 1.2000050000000044, 0.4299999999999926, -2.5400009999999895, 4-20-2011
3.3300020000000075, -2.5400009999999895, -0.25, -2.5400000000000063, 5-1-2011
3.469994, -2.5400000000000063, -0.39000000000000057, -1.4800029999999964, 5-2-2011
2.9200060000000008, -1.4800029999999964, -2.0199970000000036, 0.0899959999999993, 5-3-2011
3.5900040000000075, 0.0899959999999993, 4.650002000000001, -1.5599979999999931, 5-4-2011
5.230003999999994, -1.5599979999999931, 2.7900009999999895, 1.0899969999999968, 5-5-2011
2.4000020000000006, 1.0899969999999968, 0.09999800000001358, -0.5700000000000074, 5-6-2011
2.0, -0.5700000000000074, -0.40000100000000316, -3.7599949999999893, 5-7-2011
4.680000000000007, -3.7599949999999893, -1.2300030000000106, 0.05999800000000732, 5-8-2011
2.7800069999999977, 0.05999800000000732, 0.3000029999999896, -0.3799979999999863, 5-9-2011
2.389999000000003, -0.3799979999999863, -0.27000400000000013, -0.47000100000001055, 5-10-2011
3.479996, -0.47000100000001055, -0.5699999999999932, 1.4800039999999939, 5-11-2011
2.4100030000000032, 1.4800039999999939, 0.2799980000000062, 0.7300039999999939, 5-12-2011
1.9700009999999963, 0.7300039999999939, 0.34999799999999937, -0.9800029999999964, 5-13-2011
2.150001000000003, -0.9800029999999964, 0.08000199999999325, 0.7799980000000062, 5-14-2011
3.060005000000004, 0.7799980000000062, -1.75, -0.8499979999999994, 5-15-2011
1.629997000000003, -0.8499979999999994, 0.9199980000000068, 0.8899999999999864, 5-16-2011
2.239998, 0.8899999999999864, -0.5599979999999931, 1.6999969999999962, 5-17-2011
2.4199980000000068, 1.6999969999999962, -0.5, 0.5300060000000002, 5-18-2011
2.110000999999997, 0.5300060000000002, 0.6499940000000066, 0.2700049999999976, 5-19-2011
1.6900029999999902, 0.2700049999999976, 1.8599999999999994, -0.870002999999997, 5-20-2011
3.0900040000000075, -0.870002999999997, 0.370002999999997, -1.3199999999999932, 5-21-2011
3.7099990000000105, -1.3199999999999932, 0.2200019999999938, 2.5, 6-1-2011
3.2999949999999956, 2.5, -1.5600060000000013, 1.2099999999999937, 6-2-2011
3.989998, 1.2099999999999937, -0.019996999999989384, -1.4800030000000106, 6-3-2011
3.010002, -1.4800030000000106, 0.45000400000000695, -1.4599989999999963, 6-4-2011
2.020004, -1.4599989999999963, 0.06999999999999318, 0.8199990000000099, 6-5-2011
2.739998, 0.8199990000000099, 0.6199959999999862, 1.2200010000000105, 6-6-2011
2.139999000000003, 1.2200010000000105, -0.7799990000000037, -2.3300019999999932, 6-7-2011
2.889999000000003, -2.3300019999999932, 0.3199999999999932, -3.2799990000000037, 6-8-2011
4.9099959999999925, -3.2799990000000037, 1.5500030000000038, -1.2300029999999964, 6-9-2011
2.3599999999999994, -1.2300029999999964, -0.879997000000003, -1.2799990000000037, 6-10-2011
3.0800019999999932, -1.2799990000000037, -0.31000500000000386, -0.9499969999999962, 6-11-2011
2.300003000000004, -0.9499969999999962, 0.8000030000000038, -0.1600040000000007, 6-12-2011
2.2799990000000037, -0.1600040000000007, -0.7399979999999999, -0.6099999999999994, 6-13-2011
1.6900030000000044, -0.6099999999999994, 0.6099999999999994, 0.6800000000000068, 6-14-2011
1.9499970000000104, 0.6800000000000068, -0.4599990000000105, -0.3900069999999971, 6-15-2011
2.1800010000000043, -0.3900069999999971, -2.279998000000006, 1.1000060000000076, 6-16-2011
3.619995000000003, 1.1000060000000076, -0.08000200000000746, -1.8100049999999896, 6-17-2011
2.3400040000000075, -1.8100049999999896, -0.869995000000003, 2.9299999999999926, 6-18-2011
3.2200010000000105, 2.9299999999999926, 0.2699960000000061, 1.8100060000000013, 6-19-2011
2.800003000000004, 1.8100060000000013, 0.21999300000000233, 0.47000099999999634, 6-20-2011
2.5700080000000014, 0.47000099999999634, 0.45000500000000443, 1.0, 6-21-2011
1.5900039999999933, 1.0, -0.18000000000000682, -1.2900010000000037, 6-22-2011
2.16999899999999, -1.2900010000000037, 0.22999599999999987, -0.06999999999999318, 7-1-2011
2.0400010000000037, -0.06999999999999318, -0.1999969999999962, -0.7700040000000001, 7-2-2011
1.5699999999999932, -0.7700040000000001, 1.4000010000000032, -0.11999500000000296, 7-3-2011
1.5699999999999932, -0.11999500000000296, -1.5700000000000074, -0.06000499999998965, 7-4-2011
1.4599989999999963, -0.06000499999998965, -1.4799959999999999, -1.4300000000000068, 7-5-2011
1.8700020000000137, -1.4300000000000068, -0.17000600000000077, 0.050003000000003794, 7-6-2011
1.5800019999999932, 0.050003000000003794, 0.620002999999997, -0.5699999999999932, 7-7-2011
2.509994000000006, -0.5699999999999932, 0.5199969999999894, -2.75, 7-8-2011
3.1799999999999926, -2.75, 3.2900010000000037, 1.1900020000000069, 7-9-2011
2.380004999999997, 1.1900020000000069, 0.1999969999999962, 0.1299980000000005, 7-10-2011
2.109993000000003, 0.1299980000000005, 0.4800029999999964, 2.0299990000000037, 7-11-2011
2.2799990000000037, 2.0299990000000037, 0.7799989999999895, -1.0, 7-12-2011
1.2799989999999895, -1.0, 0.83000100000001, 0.91999899999999, 7-13-2011
1.8100060000000013, 0.91999899999999, -0.009994999999989318, 1.0199969999999894, 7-14-2011
1.5899959999999993, 1.0199969999999894, -1.370002999999997, 1.010002, 7-15-2011
2.6599959999999925, 1.010002, 0.0, 0.3600009999999969, 7-16-2011
3.259994000000006, 0.3600009999999969, -0.5699999999999932, -1.9300000000000068, 7-17-2011
2.0499960000000073, -1.9300000000000068, -0.02999899999998945, -0.6100009999999969, 7-18-2011
2.260002, -0.6100009999999969, -1.25, -0.18000000000000682, 7-19-2011
1.860000999999997, -0.18000000000000682, 1.889999000000003, -2.269996000000006, 7-20-2011
3.8300019999999932, -2.269996000000006, -0.7600020000000001, -1.6500020000000006, 8-1-2011
3.2900010000000037, -1.6500020000000006, 0.05999800000000732, -1.2899940000000072, 8-2-2011
3.760002, -1.2899940000000072, -1.4700009999999963, -4.380004999999997, 8-3-2011
5.060005000000004, -4.380004999999997, 6.140000000000001, -2.349998999999997, 8-4-2011
7.819998999999996, -2.349998999999997, -2.3200000000000074, -5.0, 8-5-2011
6.75, -5.0, 1.6800010000000043, 0.5800019999999932, 8-6-2011
5.800004000000001, 0.5800019999999932, -0.34999899999999684, -3.520004, 8-7-2011
4.400001999999986, -3.520004, 0.9700009999999963, 5.180000000000007, 8-8-2011
7.3300020000000075, 5.180000000000007, 3.6400000000000006, -2.629997000000003, 8-9-2011
4.69000299999999, -2.629997000000003, 1.0400000000000063, 1.0999989999999968, 8-10-2011
1.8500059999999934, 1.0999989999999968, -1.2900010000000037, -0.41999800000000675, 8-11-2011
2.5899959999999993, -0.41999800000000675, 0.6899950000000104, -1.2699970000000036, 8-12-2011
4.030006, -1.2699970000000036, -2.3399959999999993, -4.030006999999998, 8-13-2011
4.810006000000001, -4.030006999999998, -1.009994000000006, 0.9499969999999962, 8-14-2011
3.2699970000000036, 0.9499969999999962, 2.3300020000000075, -3.5500040000000013, 8-15-2011
4.650002000000001, -3.5500040000000013, -0.029998000000006186, 2.650001000000003, 8-16-2011
3.4199980000000068, 2.650001000000003, -0.620002999999997, 1.5700000000000074, 8-17-2011
2.1900030000000044, 1.5700000000000074, 0.7000049999999902, -2.360000999999997, 8-18-2011
3.7000039999999927, -2.360000999999997, -0.5200040000000001, 2.1099999999999994, 8-19-2011
4.160004000000001, 2.1099999999999994, 1.370002999999997, 0.33000200000000746, 8-20-2011
1.8700020000000137, 0.33000200000000746, -0.45000500000000443, 1.0999989999999968, 8-21-2011
3.0, 1.0999989999999968, 0.7800060000000002, -0.3900069999999971, 8-22-2011
2.729996, -0.3900069999999971, 0.7300039999999939, -1.9000019999999864, 8-23-2011
2.870002999999997, -1.9000019999999864, -2.0700000000000074, -1.0, 9-1-2011
2.3700020000000137, -1.0, -2.6099999999999994, 1.2200009999999963, 9-2-2011
2.18000099999999, 1.2200009999999963, 1.5200040000000001, 2.1899950000000104, 9-3-2011
2.75, 2.1899950000000104, -1.0499950000000098, -0.370002999999997, 9-4-2011
3.2000039999999927, -0.370002999999997, -1.9400020000000069, -1.989998, 9-5-2011
3.369995000000003, -1.989998, -0.7900009999999895, 1.5800019999999932, 9-6-2011
2.240005999999994, 1.5800019999999932, 0.3199990000000099, 0.3199999999999932, 9-7-2011
2.0999980000000136, 0.3199999999999932, -0.8899990000000031, 1.889999000000003, 9-8-2011
3.7600029999999975, 1.889999000000003, 1.120002999999997, 1.5299990000000037, 9-9-2011
2.2799990000000037, 1.5299990000000037, 0.7299950000000024, -0.9699930000000023, 9-10-2011
2.0, -0.9699930000000023, -2.0400010000000037, -0.3600009999999969, 9-11-2011
2.6600040000000007, -0.3600009999999969, 0.4499969999999962, -1.0899959999999993, 9-12-2011
2.680000000000007, -1.0899959999999993, -0.15000200000000063, -3.5400009999999895, 9-13-2011
4.899993999999992, -3.5400009999999895, -2.5999980000000136, -4.080001999999993, 9-14-2011
5.800003000000004, -4.080001999999993, -1.389999000000003, -1.6400000000000006, 9-15-2011
3.8200000000000074, -1.6400000000000006, 1.5400010000000037, 1.4199980000000068, 9-16-2011
3.6500020000000006, 1.4199980000000068, 1.9700019999999938, -0.04000100000000373, 9-17-2011
2.479996, -0.04000100000000373, 0.1200019999999995, -4.440001999999993, 9-18-2011
4.660004000000001, -4.440001999999993, 1.739998, -2.25, 9-19-2011
4.480003999999994, -2.25, -2.3900000000000006, -0.379997000000003, 9-20-2011
3.2099989999999963, -0.379997000000003, -0.870002999999997, -1.7299950000000024, 9-21-2011
2.449996999999996, -1.7299950000000024, -1.0700080000000014, 6.320008000000001, 10-1-2011
7.2200010000000105, 6.320008000000001, 0.04999499999999557, 3.0900040000000075, 10-2-2011
3.729996, 3.0900040000000075, -0.4300000000000068, 2.1699980000000068, 10-3-2011
3.4000020000000006, 2.1699980000000068, 0.5100020000000001, -4.150001000000003, 10-4-2011
4.5, -4.150001000000003, 1.9399939999999987, 2.5700080000000014, 10-5-2011
2.7099989999999963, 2.5700080000000014, -0.7700049999999976, 1.5, 10-6-2011
2.5199970000000036, 1.5, 0.6600040000000007, 0.1499939999999924, 10-7-2011
2.389999000000003, 0.1499939999999924, -0.9299999999999926, 0.20000399999999274, 10-8-2011
2.8900000000000006, 0.20000399999999274, 1.869995000000003, 1.890006999999997, 10-9-2011
2.360000999999997, 1.890006999999997, -0.6799999999999926, -1.889999000000003, 10-10-2011
2.9799950000000024, -1.889999000000003, 0.1099930000000029, 4.5, 10-11-2011
6.3799980000000005, 4.5, -0.3599930000000029, 2.2099989999999963, 10-12-2011
3.6699980000000068, 2.2099989999999963, -0.3600009999999969, -0.17000600000000077, 10-13-2011
2.9500050000000044, -0.17000600000000077, 1.620002999999997, 1.6600040000000007, 10-14-2011
2.870002999999997, 1.6600040000000007, 0.48999799999999993, -0.02999900000000366, 10-15-2011
1.5699999999999932, -0.02999900000000366, 0.0, -3.5600049999999896, 10-16-2011
3.8300019999999932, -3.5600049999999896, 1.4600059999999928, -1.5600049999999896, 10-17-2011
2.9300010000000043, -1.5600049999999896, 3.5800019999999932, 1.8399959999999993, 10-18-2011
4.169998000000007, 1.8399959999999993, -1.1999969999999962, 3.5400010000000037, 10-19-2011
3.630004999999997, 3.5400010000000037, -1.7900010000000037, -3.9599989999999963, 10-20-2011
4.199996999999996, -3.9599989999999963, -3.440002000000007, -0.1100009999999969, 10-21-2011
3.120002999999997, -0.1100009999999969, 4.840003999999993, 5.320000000000007, 11-1-2011
7.69000299999999, 5.320000000000007, 1.5400009999999895, 2.4499970000000104, 11-2-2011
4.41999899999999, 2.4499970000000104, -1.1900030000000044, 2.8400040000000075, 11-3-2011
4.239998, 2.8400040000000075, -0.19999700000001042, -0.31000499999998965, 11-4-2011
2.6699990000000042, -0.31000499999998965, 0.5800019999999932, 0.1600040000000007, 11-5-2011
2.7900010000000037, 0.1600040000000007, -2.470001999999994, -1.2099990000000105, 11-6-2011
2.6600040000000007, -1.2099990000000105, 1.1800010000000043, 0.629997000000003, 11-7-2011
2.3399969999999968, 0.629997000000003, 1.1699979999999925, 2.800003000000004, 11-8-2011
2.880004999999997, 2.800003000000004, -1.0699999999999932, 0.8299949999999967, 11-9-2011
3.1699979999999925, 0.8299949999999967, -0.43999500000001035, -0.9700009999999963, 11-10-2011
1.9199980000000068, -0.9700009999999963, -0.41999899999999, -1.25, 11-11-2011
2.870002999999997, -1.25, -0.29000000000000625, -3.380004999999997, 11-12-2011
5.139999000000003, -3.380004999999997, 1.3500059999999934, -0.5300069999999977, 11-13-2011
3.8300019999999932, -0.5300069999999977, -2.129997000000003, 0.3000030000000038, 11-14-2011
2.599998999999997, 0.3000030000000038, -0.4300000000000068, -0.5999989999999968, 11-15-2011
2.66999899999999, -0.5999989999999968, -1.3700019999999995, -2.0, 11-16-2011
2.5, -2.0, -0.7600029999999975, 0.020004999999997608, 11-17-2011
2.0699989999999957, 0.020004999999997608, 3.119995000000003, 1.5999979999999994, 11-18-2011
2.930000000000007, 1.5999979999999994, 0.6800010000000043, 1.9600059999999928, 11-19-2011
2.9099960000000067, 1.9600059999999928, 3.8099980000000073, 1.6999969999999962, 11-20-2011
2.370002999999997, 1.6999969999999962, -0.1100009999999969, -1.0999979999999994, 11-21-2011
3.299995999999993, -1.0999979999999994, 1.260002, -1.2300030000000106, 12-1-2011
1.879997000000003, -1.2300030000000106, 1.4300000000000068, -1.879997000000003, 12-2-2011
3.6299980000000005, -1.879997000000003, 0.34999799999999937, 2.430000000000007, 12-3-2011
4.119995000000003, 2.430000000000007, -0.7799980000000062, -1.0800019999999932, 12-4-2011
2.629997000000003, -1.0800019999999932, -0.48999799999999993, -1.9100040000000007, 12-5-2011
4.45000499999999, -1.9100040000000007, -0.1599960000000067, 3.2799990000000037, 12-6-2011
3.9499970000000104, 3.2799990000000037, -1.6600040000000007, -1.0399929999999955, 12-7-2011
3.1099999999999994, -1.0399929999999955, 0.7099989999999963, -3.260002, 12-8-2011
5.969993000000002, -3.260002, -1.5199970000000036, -3.8100049999999896, 12-9-2011
3.949996999999996, -3.8100049999999896, 1.3899999999999864, -0.11999599999998622, 12-10-2011
2.549995999999993, -0.11999599999998622, 0.9899979999999999, 2.25, 12-11-2011
3.1600040000000007, 2.25, -0.16999800000000675, -1.9400020000000069, 12-12-2011
2.530006, -1.9400020000000069, 2.269996000000006, 0.13000499999999704, 12-13-2011
1.8400040000000075, 0.13000499999999704, 0.27999900000000366, -0.06999999999999318, 12-14-2011
2.1700050000000033, -0.06999999999999318, 0.04000099999998952, 0.1100009999999969, 12-15-2011
0.6999969999999962, 0.1100009999999969, 0.15000100000000316, -0.2100059999999928, 12-16-2011
1.8999940000000066, -0.2100059999999928, 0.1200019999999995, 0.620002999999997, 12-17-2011
1.6400000000000006, 0.620002999999997, 0.22000099999999634, -2.7900009999999895, 12-18-2011
3.369995000000003, -2.7900009999999895, -0.06999900000000991, 1.6800000000000068, 12-19-2011
1.8099970000000098, 1.6800000000000068, 0.0, 0.45999899999999627, 12-20-2011
1.7299950000000024, 0.8399959999999993, 0.010002000000000066, 0.12999700000000303, 1-1-2012
1.369995000000003, 0.12999700000000303, -0.43999399999999866, 1.0, 1-2-2012
2.690002000000007, 1.0, 0.09999799999999937, 0.18000000000000682, 1-3-2012
1.7699970000000036, 0.18000000000000682, 0.04000099999998952, -0.3000029999999896, 1-4-2012
1.5599979999999931, -0.3000029999999896, 3.2200009999999963, 0.1299980000000005, 1-5-2012
2.369995000000003, 0.1299980000000005, -0.7399979999999999, -1.610000999999997, 1-6-2012
2.5400010000000037, -1.610000999999997, 0.45999899999999627, 0.25, 1-7-2012
2.1599959999999925, 0.25, -1.2099989999999963, 0.370002999999997, 1-8-2012
2.0199969999999894, 0.370002999999997, 1.6599959999999925, -0.9799959999999999, 1-9-2012
2.449996999999996, -0.9799959999999999, -0.09999799999999937, 1.75, 1-10-2012
3.010002, 1.75, 0.3199990000000099, -0.6100000000000136, 1-11-2012
1.8499989999999968, -0.6100000000000136, -0.20999899999999627, -1.7099989999999963, 1-12-2012
2.5299989999999895, -1.7099989999999963, 1.6699979999999925, 0.7699960000000061, 1-13-2012
2.259994000000006, 0.7699960000000061, -0.9700009999999963, -0.07999399999999923, 1-14-2012
1.389999000000003, -0.07999399999999923, -0.27000400000000013, 2.5299989999999895, 1-15-2012
4.179999999999993, 2.5299989999999895, 0.4800030000000106, -2.5400010000000037, 1-16-2012
3.2699970000000036, -2.5400010000000037, -0.41999800000000675, -0.20999899999999627, 1-17-2012
1.7700040000000001, -0.20999899999999627, -1.110000999999997, 2.299995999999993, 1-18-2012
3.260002, 2.299995999999993, 0.26000200000000007, 0.5699990000000099, 1-19-2012
1.5700000000000074, 0.5699990000000099, 0.8099979999999931, -1.0499949999999956, 1-20-2012
2.3000029999999896, -1.0499949999999956, -0.25, 0.8300009999999958, 2-1-2012
3.1699980000000068, 0.8300009999999958, 1.5499960000000073, 1.0599969999999956, 2-2-2012
3.0200049999999976, 1.0599969999999956, 0.38000499999999704, 0.5899969999999968, 2-3-2012
1.7800060000000002, 0.5899969999999968, -0.05999799999999311, 1.129997000000003, 2-4-2012
2.449996999999996, 1.129997000000003, 0.31000500000000386, -0.020004000000000133, 2-5-2012
2.139999000000003, -0.020004000000000133, -0.36999500000000296, 1.3999939999999924, 2-6-2012
2.7800069999999977, 1.3999939999999924, -1.6799999999999926, 1.0600049999999896, 2-7-2012
1.6699979999999925, 1.0600049999999896, 0.7099990000000105, 0.8399959999999993, 2-8-2012
1.4700019999999938, 0.8399959999999993, -0.21999300000000233, 0.5899959999999993, 2-9-2012
1.4499969999999962, 0.5899959999999993, 0.75, 0.3399959999999993, 2-10-2012
2.5500040000000013, 0.3399959999999993, 0.15000200000000063, 2.630004999999997, 2-11-2012
4.2799989999999895, 2.630004999999997, 1.4499969999999962, -4.720001999999994, 2-12-2012
6.480002999999996, -4.720001999999994, 1.630004999999997, -0.33000099999999577, 2-13-2012
2.0, -0.33000099999999577, 0.30999699999999564, -0.29999499999999557, 2-14-2012
1.9400020000000069, -0.29999499999999557, 0.18999399999999866, 0.6500020000000006, 2-15-2012
2.0999979999999994, 0.6500020000000006, 0.1600040000000007, 0.8899990000000031, 2-16-2012
1.8899999999999864, 0.8899990000000031, -0.22000100000001055, -1.7099989999999963, 2-17-2012
2.180000000000007, -1.7099989999999963, 0.2999950000000098, 0.6900029999999902, 2-18-2012
1.6999969999999962, 0.6900029999999902, 0.1200019999999995, -2.8700019999999995, 2-19-2012
3.819999999999993, -2.8700019999999995, 0.3899990000000031, 2.6600040000000007, 2-20-2012
2.760002, 2.6600040000000007, -0.5100020000000001, -2.5, 3-1-2012
3.6999970000000104, -2.5, -0.39000000000000057, -0.31000500000000386, 3-2-2012
2.260002, -0.31000500000000386, -2.0799939999999992, 1.5999979999999994, 3-3-2012
2.5899969999999968, 1.5999979999999994, 0.0, 0.41999800000000675, 3-4-2012
1.639999000000003, 0.41999800000000675, 1.5800019999999932, -0.30999699999999564, 3-5-2012
2.0, -0.30999699999999564, 0.0899959999999993, 0.4800029999999964, 3-6-2012
1.6900020000000069, 0.4800029999999964, 0.25999500000000353, -1.5099950000000035, 3-7-2012
2.7200009999999963, -1.5099950000000035, 0.11999500000000296, 3.0, 3-8-2012
3.9200050000000033, 3.0, -0.04000000000000625, -2.1299979999999863, 3-9-2012
2.869995000000003, -2.1299979999999863, 0.15999599999999248, 0.7900010000000037, 3-10-2012
2.219994, 0.7900010000000037, 0.7300039999999939, 0.41999800000000675, 3-11-2012
2.0800019999999932, 0.41999800000000675, -0.12999700000000303, 0.7399970000000025, 3-12-2012
1.8599999999999994, 0.7399970000000025, -1.25, -1.4300000000000068, 3-13-2012
1.9899970000000025, -1.4300000000000068, 0.0, -0.9000010000000032, 3-14-2012
2.029998000000006, -0.9000010000000032, -1.4499969999999962, -2.0100029999999975, 3-15-2012
3.279998000000006, -2.0100029999999975, 0.13000499999999704, 1.25, 3-16-2012
2.489998, 1.25, 1.0299990000000037, -0.5999979999999994, 3-17-2012
1.5899959999999993, -0.5999979999999994, 0.29999499999999557, -1.1799999999999926, 3-18-2012
1.610000999999997, -1.1799999999999926, -0.5400010000000037, -1.110000999999997, 3-19-2012
2.449996999999996, -1.110000999999997, -1.139999000000003, 0.5299990000000037, 3-20-2012
2.1099999999999994, 0.5299990000000037, 0.4600059999999928, 1.619995000000003, 3-21-2012
2.7200009999999963, 1.619995000000003, -0.10999999999999943, 2.3599999999999994, 3-22-2012
4.010002, 2.3599999999999994, -0.7200009999999963, 0.9300009999999901, 4-1-2012
1.5299989999999895, 0.9300009999999901, -1.5, -1.5400009999999895, 4-2-2012
2.690002000000007, -1.5400009999999895, -0.3999940000000066, -0.9400029999999902, 4-3-2012
2.620002999999997, -0.9400029999999902, -2.2300030000000106, 0.4900050000000107, 4-4-2012
1.4199980000000068, 0.4900050000000107, 0.0, -3.440002000000007, 4-5-2012
3.9100030000000032, -3.440002000000007, 1.1800000000000068, -2.2300030000000106, 4-6-2012
3.0099950000000035, -2.2300030000000106, 0.050003000000003794, 2.2200009999999963, 4-7-2012
2.7099999999999937, 2.2200009999999963, -0.48999799999999993, -1.4000010000000032, 4-8-2012
2.2000050000000044, -1.4000010000000032, 0.5299990000000037, -1.0900039999999933, 4-9-2012
3.2900010000000037, -1.0900039999999933, 1.1500010000000032, 0.880004999999997, 4-10-2012
1.7799989999999895, 0.880004999999997, -0.4100040000000007, -0.22000099999999634, 4-11-2012
1.4100030000000032, -0.22000099999999634, 0.13000499999999704, -0.3400040000000075, 4-12-2012
1.9800030000000106, -0.3400040000000075, 0.9300000000000068, -1.8599999999999994, 4-13-2012
2.7099989999999963, -1.8599999999999994, -2.4199980000000068, 2.9899970000000025, 4-14-2012
3.1800010000000043, 2.9899970000000025, 0.5100029999999975, 0.3399959999999993, 4-15-2012
1.5299980000000062, 0.3399959999999993, 0.9300000000000068, 1.0500030000000038, 4-16-2012
1.9200060000000008, 1.0500030000000038, -0.010002000000000066, 2.099998999999997, 4-17-2012
2.869995000000003, 2.099998999999997, 0.49000499999999647, 0.009995000000003529, 4-18-2012
1.1400000000000006, 0.009995000000003529, -0.14000000000000057, 0.9300009999999901, 4-19-2012
2.1000060000000076, 0.9300009999999901, 0.4900050000000107, 0.9299999999999926, 4-20-2012
2.439994999999996, 0.9299999999999926, -1.3300009999999958, -0.620002999999997, 5-1-2012
1.6800010000000043, -0.620002999999997, -0.27999900000000366, -1.2900010000000037, 5-2-2012
2.7200010000000105, -1.2900010000000037, -1.3099969999999956, -1.110000999999997, 5-3-2012
2.819999999999993, -1.110000999999997, -0.8200000000000074, 0.29999600000000726, 5-4-2012
2.5599969999999956, 0.29999600000000726, -1.1499940000000066, 0.36999500000000296, 5-5-2012
3.779998000000006, 0.36999500000000296, -0.18000000000000682, 1.2900000000000063, 5-6-2012
4.919998000000007, 1.2900000000000063, 1.6400000000000006, -0.22999599999999987, 5-7-2012
1.8199999999999932, -0.22999599999999987, -1.0299990000000037, -1.25, 5-8-2012
2.639999000000003, -1.25, -1.3300009999999958, -1.860000999999997, 5-9-2012
2.0200049999999976, -1.860000999999997, -0.050003000000003794, -1.7799990000000037, 5-10-2012
3.059997999999993, -1.7799990000000037, 0.45000500000000443, -0.7100070000000045, 5-11-2012
3.0499949999999956, -0.7100070000000045, -0.039992999999995504, -1.5700080000000014, 5-12-2012
2.1599959999999925, -1.5700080000000014, 0.5500030000000038, -1.58000100000001, 5-13-2012
2.8400039999999933, -1.58000100000001, 1.0200040000000001, 2.869995000000003, 5-14-2012
2.9700009999999963, 2.869995000000003, 1.389999000000003, -0.25999400000000605, 5-15-2012
3.0, -0.25999400000000605, -1.0400009999999895, 1.4099959999999925, 5-16-2012
4.010002, 1.4099959999999925, 0.3000030000000038, -1.2099989999999963, 5-17-2012
3.25, -1.2099989999999963, -0.23000300000001062, 1.1900020000000069, 5-18-2012
1.8700020000000137, 1.1900020000000069, 2.699996999999996, 0.4100040000000007, 5-19-2012
2.1599959999999925, 0.4100040000000007, -1.5200049999999976, -2.3499979999999994, 5-20-2012
3.4399939999999987, -2.3499979999999994, -0.23999799999999993, -1.4499969999999962, 5-21-2012
4.449995999999999, -1.4499969999999962, -3.4200060000000008, -4.209998999999996, 5-22-2012
4.800003000000004, -4.209998999999996, 0.2900009999999895, -1.5599969999999956, 6-1-2012
3.3200000000000074, -1.5599969999999956, -0.7900010000000037, 2.260002, 6-2-2012
2.6600030000000032, 2.260002, 1.1699980000000068, 1.879997000000003, 6-3-2012
2.129997000000003, 1.879997000000003, 1.6600039999999865, -1.130004999999997, 6-4-2012
2.989998, -1.130004999999997, -1.629997000000003, 0.05999700000000985, 6-5-2012
2.369995000000003, 0.05999700000000985, 1.4700009999999963, -3.4199979999999925, 6-6-2012
4.299994999999996, -3.4199979999999925, 0.6800009999999901, 1.5599970000000098, 6-7-2012
2.1400000000000006, 1.5599970000000098, -0.379997000000003, -1.0900040000000075, 6-8-2012
3.210005999999993, -1.0900040000000075, 0.20000500000000443, 1.5599969999999956, 6-9-2012
2.729996, 1.5599969999999956, 0.4300000000000068, 1.75, 6-10-2012
2.869995000000003, 1.75, -0.6099999999999994, -1.2999960000000073, 6-11-2012
1.8099970000000098, -1.2999960000000073, 0.9599990000000105, 0.2599949999999893, 6-12-2012
1.739998, 0.2599949999999893, 0.1900020000000069, -3.199996999999996, 6-13-2012
4.6299980000000005, -3.199996999999996, -0.09000400000000752, -6.369995000000003, 6-14-2012
6.930001000000004, -6.369995000000003, 1.2099990000000105, -0.06999900000000991, 6-15-2012
2.0999979999999994, -0.06999900000000991, -1.93000099999999, -0.7900000000000063, 6-16-2012
2.2199930000000023, -0.7900000000000063, 0.01999600000000612, -0.9599990000000105, 6-17-2012
3.0799949999999967, -0.9599990000000105, 0.29000100000000373, 1.4800029999999964, 6-18-2012
2.0899960000000135, 1.4800029999999964, -0.5300060000000002, -0.039992999999995504, 6-19-2012
1.9499969999999962, -0.039992999999995504, 2.7899929999999955, 2.1600040000000007, 6-20-2012
2.690002000000007, 2.1600040000000007, -0.5699999999999932, -0.5999989999999968, 6-21-2012
2.400001000000003, -0.5999989999999968, 1.0599979999999931, 4.889999000000003, 7-1-2012
