0.3333333333333333, 0.7272727272727273,1.0099949999999893, 0.3400040000000075, 0.1100009999999969, -0.13000499999999704, 64.540001, 64.519997, 1-1-2007
0.05, 0.6263736263736264,0.6999969999999962, -0.13000499999999704, -0.27999900000000366, 0.49000499999999647, 64.519997, 64.730003, 1-2-2007
0.38461538461538464, 0.5714285714285714,0.75, 0.49000499999999647, -0.08000099999999577, -0.34999899999999684, 64.730003, 64.300003, 1-3-2007
0.5, 0.6818181818181818,0.5400010000000037, -0.34999899999999684, 0.47999599999999987, 0.41999799999999254, 64.300003, 65.199997, 1-4-2007
0.0, 0.9166666666666666,1.0300060000000002, 0.41999799999999254, 0.010002000000000066, 0.08000200000000746, 65.199997, 65.290001, 1-5-2007
0.18181818181818182, 0.5714285714285714,0.8099970000000098, 0.08000200000000746, 0.0, 1.139999000000003, 65.290001, 66.43, 1-6-2007
0.06666666666666667, 0.5,1.2799989999999895, 1.139999000000003, -0.18000000000000682, 0.8199999999999932, 66.43, 67.07, 1-7-2007
0.3, 0.7875,1.130004999999997, 0.8199999999999932, 0.0, 0.22000100000001055, 67.07, 67.290001, 1-8-2007
0.2777777777777778, 0.6666666666666666,0.48999799999999993, 0.22000100000001055, 0.010002000000000066, 0.5299989999999895, 67.290001, 67.830002, 1-9-2007
0.6, 0.7288135593220338,1.009994000000006, 0.5299989999999895, -0.1799999999999926, -1.6400000000000006, 67.830002, 66.010002, 1-10-2007
0.13333333333333333, 0.75,1.889999000000003, -1.6400000000000006, 0.5, -0.35999999999999943, 66.010002, 66.150002, 1-11-2007
0.3333333333333333, 0.7,1.110000999999997, -0.35999999999999943, -0.26000299999999754, -0.41999800000000675, 66.150002, 65.470001, 1-12-2007
0.5454545454545454, 0.7358490566037735,0.8400039999999933, -0.41999800000000675, 0.010002000000000066, 0.5599980000000073, 65.470001, 66.040001, 1-13-2007
0.2631578947368421, 0.7936507936507936,0.75, 0.5599980000000073, -0.010002000000000066, 0.20999899999999627, 66.040001, 66.239998, 1-14-2007
0.2727272727272727, 0.6857142857142857,0.7299959999999999, 0.20999899999999627, 0.20999899999999627, -0.75, 66.239998, 65.699997, 1-15-2007
0.2631578947368421, 0.5686274509803921,0.9700009999999963, -0.75, -0.22999599999999987, -0.3400039999999933, 65.699997, 65.129997, 1-16-2007
0.5, 0.7872340425531915,0.9299999999999926, -0.3400039999999933, 0.08000199999999325, 0.1600040000000007, 65.129997, 65.370003, 1-17-2007
0.07692307692307693, 0.6463414634146342,0.7299959999999999, 0.1600040000000007, 0.25, 0.04999500000000978, 65.370003, 65.669998, 1-18-2007
0.20833333333333334, 0.5522388059701493,0.6399990000000031, 0.04999500000000978, 0.0, 0.620002999999997, 65.669998, 66.290001, 1-19-2007
0.3076923076923077, 0.6470588235294118,0.8400039999999933, 0.620002999999997, -0.07000000000000739, 1.5999989999999968, 66.290001, 67.82, 1-20-2007
0.2777777777777778, 0.6764705882352942,1.9700010000000105, 1.5999989999999968, 0.029998000000006186, -0.1399990000000031, 67.82, 67.709999, 2-1-2007
0.3333333333333333, 0.7073170731707317,0.8200000000000074, -0.1399990000000031, -0.33000199999999325, -0.30999700000000985, 67.709999, 67.07, 2-2-2007
0.375, 0.6222222222222222,0.7099989999999963, -0.30999700000000985, 0.0, 0.8499980000000136, 67.07, 67.919998, 2-3-2007
0.25, 0.7339449541284404,0.9499970000000104, 0.8499980000000136, 0.08000199999999325, 0.3399959999999993, 67.919998, 68.339996, 2-4-2007
0.55, 0.7575757575757576,0.45999899999999627, 0.3399959999999993, -0.2699960000000061, -0.4700019999999938, 68.339996, 67.599998, 2-5-2007
0.2727272727272727, 0.6363636363636364,0.75, -0.4700019999999938, 0.25, 0.05000400000000127, 67.599998, 67.900002, 2-6-2007
0.25, 0.7796610169491526,0.5999980000000136, 0.05000400000000127, 0.0899959999999993, -0.04000100000000373, 67.900002, 67.949997, 2-7-2007
0.26666666666666666, 0.6724137931034483,0.9099959999999925, -0.04000100000000373, 0.42000600000000077, 0.43999499999999614, 67.949997, 68.809998, 2-8-2007
0.2, 0.53125,0.7899929999999955, 0.43999499999999614, -0.34999899999999684, 0.15000200000000063, 68.809998, 68.610001, 2-9-2007
0.631578947368421, 0.6296296296296297,0.7300030000000106, 0.15000200000000063, -0.20999899999999627, 0.2799980000000062, 68.610001, 68.68, 2-10-2007
0.3333333333333333, 0.5897435897435898,0.40000100000000316, 0.2799980000000062, 0.1100009999999969, -0.5800020000000075, 68.68, 68.209999, 2-11-2007
0.4, 0.6857142857142857,0.9199980000000068, -0.5800020000000075, -0.5400009999999895, 0.5299989999999895, 68.209999, 68.199997, 2-12-2007
0.4827586206896552, 0.6666666666666666,1.489998, 0.5299989999999895, -0.11999500000000296, 0.18999500000001035, 68.199997, 68.269997, 2-13-2007
0.4, 0.6951219512195121,0.6599959999999925, 0.18999500000001035, 0.2300029999999964, -1.0599979999999931, 68.269997, 67.440002, 2-14-2007
0.14285714285714285, 0.7222222222222222,1.1999970000000104, -1.0599979999999931, 0.0, 0.29999599999999305, 67.440002, 67.739998, 2-15-2007
0.5, 0.8571428571428571,0.9399939999999987, 0.29999599999999305, 0.45999899999999627, -0.1999969999999962, 67.739998, 68.0, 2-16-2007
0.5714285714285714, 0.696969696969697,0.7999949999999956, -0.1999969999999962, -0.4300000000000068, -1.4800039999999939, 68.0, 66.089996, 2-17-2007
0.21428571428571427, 0.6481481481481481,2.730003999999994, -1.4800039999999939, 0.0, 0.1600040000000007, 66.089996, 66.25, 2-18-2007
0.2608695652173913, 0.6163793103448276,1.760002, 0.29999599999999305, -0.22000099999999634, -0.27999900000000366, 65.989998, 65.489998, 3-1-2007
0.14423076923076922, 0.5204460966542751,0.9000010000000032, -0.27999900000000366, 0.0, -0.40000200000000063, 65.489998, 65.089996, 3-2-2007
0.25, 0.6345177664974619,1.0699999999999932, -0.40000200000000063, 0.3400040000000075, 0.4700019999999938, 65.089996, 65.900002, 3-3-2007
0.25301204819277107, 0.588477366255144,0.9700009999999963, 0.4700019999999938, -0.26000299999999754, -0.1200019999999995, 65.900002, 65.519997, 3-4-2007
0.3119266055045872, 0.6487341772151899,0.6400000000000006, -0.1200019999999995, 0.2300029999999964, 0.75, 65.519997, 66.5, 3-5-2007
0.35185185185185186, 0.6523605150214592,1.1499939999999924, 0.75, 0.40000200000000063, 1.0699989999999957, 66.5, 67.970001, 3-6-2007
0.32786885245901637, 0.5961538461538461,1.2600029999999975, 1.0699989999999957, -0.16999799999999254, 0.9099959999999925, 67.970001, 68.709999, 3-7-2007
0.4, 0.7642857142857142,1.2599949999999893, 0.9099959999999925, 0.09000400000000752, -1.0, 68.709999, 67.800003, 3-8-2007
0.2631578947368421, 0.7041420118343196,1.9599989999999963, -1.0, 0.15999599999999248, 0.3000030000000038, 67.800003, 68.260002, 3-9-2007
0.25316455696202533, 0.6650717703349283,1.5500030000000038, 0.3000030000000038, 0.049995999999993046, 0.6700050000000033, 68.260002, 68.980003, 3-10-2007
0.23853211009174313, 0.6439169139465876,1.0699999999999932, 0.6700050000000033, -0.020004000000000133, 0.08000200000000746, 68.980003, 69.040001, 3-11-2007
0.29850746268656714, 0.6197183098591549,1.1600040000000007, 0.08000200000000746, 0.0, 1.2699969999999894, 69.040001, 70.309998, 3-12-2007
0.3090909090909091, 0.648936170212766,1.510002, 1.2699969999999894, 0.1900020000000069, 0.7200009999999963, 70.309998, 71.220001, 3-13-2007
0.29850746268656714, 0.672566371681416,0.9599989999999963, 0.7200009999999963, -0.34999799999999937, 1.2699960000000061, 71.220001, 72.139999, 3-14-2007
0.4482758620689655, 0.6842105263157895,1.5800019999999932, 1.2699960000000061, 0.010002999999997542, -0.2700049999999976, 72.139999, 71.879997, 3-15-2007
0.28888888888888886, 0.6987951807228916,0.5, -0.2700049999999976, -0.25999400000000605, 0.6599960000000067, 71.879997, 72.279999, 3-16-2007
0.5434782608695652, 0.7195121951219512,0.8900000000000006, 0.6599960000000067, -0.04999600000000726, 0.05999800000000732, 72.279999, 72.290001, 3-17-2007
0.3076923076923077, 0.68125,1.260002, 0.05999800000000732, -0.5400010000000037, -0.16999800000000675, 72.290001, 71.580002, 3-18-2007
0.3384615384615385, 0.6536585365853659,0.6999969999999962, -0.16999800000000675, -0.09999899999999684, -0.7900009999999895, 71.580002, 70.690002, 3-19-2007
0.21052631578947367, 0.7081545064377682,1.0500029999999896, -0.7900009999999895, 0.5400009999999895, -0.6200019999999995, 70.690002, 70.610001, 3-20-2007
0.16216216216216217, 0.6244131455399061,1.4500050000000044, -0.6200019999999995, -0.06999999999999318, -0.23000300000001062, 70.610001, 70.309998, 3-21-2007
0.2, 0.711340206185567,0.7799989999999895, 0.2799980000000062, 0.25, 0.3600009999999969, 70.589996, 71.199997, 4-1-2007
0.3333333333333333, 0.7439024390243902,1.0400009999999895, 0.3600009999999969, 0.0, 0.12000299999999697, 71.199997, 71.32, 4-2-2007
0.55, 0.7105263157894737,0.5599979999999931, 0.12000299999999697, -0.2900009999999895, 0.02999899999998945, 71.32, 71.059998, 4-3-2007
0.3333333333333333, 0.7875,0.4300000000000068, 0.02999899999998945, 0.7099990000000105, 0.04000099999998952, 71.059998, 71.809998, 4-4-2007
0.5384615384615384, 0.7126436781609196,1.3300020000000075, 0.04000099999998952, -0.1999969999999962, -0.7200019999999938, 71.809998, 70.889999, 4-5-2007
0.38095238095238093, 0.7368421052631579,1.0600060000000013, -0.7200019999999938, 0.20999899999999627, -0.5400000000000063, 70.889999, 70.559998, 4-6-2007
0.0, 0.5833333333333334,0.9199980000000068, -0.5400000000000063, 0.06000500000000386, 0.7399979999999999, 70.559998, 71.360001, 4-7-2007
0.125, 0.6744186046511628,1.16999899999999, 0.7399979999999999, -0.010002999999997542, -0.34999799999999937, 71.360001, 71.0, 4-8-2007
0.2222222222222222, 0.59375,0.619995000000003, -0.34999799999999937, 0.27999900000000366, 0.8300019999999932, 71.0, 72.110001, 4-9-2007
0.2857142857142857, 0.6818181818181818,1.0400000000000063, 0.8300019999999932, -0.12000299999999697, -1.2099989999999963, 72.110001, 70.779999, 4-10-2007
0.21875, 0.6224489795918368,1.25, -1.2099989999999963, 0.0, 0.1399990000000031, 70.779999, 70.919998, 4-11-2007
0.3076923076923077, 0.5398230088495575,0.8400039999999933, 0.1399990000000031, 0.5999989999999968, 3.9800029999999964, 70.919998, 75.5, 4-12-2007
0.3793103448275862, 0.574468085106383,4.970000999999996, 3.9800029999999964, 0.06999999999999318, -0.3199999999999932, 75.5, 75.25, 4-13-2007
0.3333333333333333, 0.620253164556962,0.8499989999999968, -0.3199999999999932, -0.3399959999999993, 0.1099930000000029, 75.25, 75.019997, 4-14-2007
0.4, 0.5416666666666666,0.6899949999999961, 0.1099930000000029, -0.19999700000001042, -0.5899969999999968, 75.019997, 74.230003, 4-15-2007
0.391304347826087, 0.7115384615384616,1.260002, -0.5899969999999968, 0.07000000000000739, 0.6799999999999926, 74.230003, 74.980003, 4-16-2007
0.8571428571428571, 0.75,0.7699969999999894, 0.6799999999999926, -0.3700019999999995, -0.20999899999999627, 74.980003, 74.400002, 4-17-2007
0.5, 0.7,0.8300020000000075, -0.20999899999999627, 0.010002000000000066, 0.30999699999999564, 74.400002, 74.720001, 4-18-2007
0.2857142857142857, 0.7564102564102564,1.1800010000000043, 0.30999699999999564, 0.0, -1.130004999999997, 74.720001, 73.589996, 4-19-2007
0.6666666666666666, 0.717948717948718,0.8299939999999992, -0.34999899999999684, -0.09999799999999937, 0.8599930000000029, 73.260002, 74.019997, 5-1-2007
0.36666666666666664, 0.6504854368932039,1.2999949999999956, 0.8599930000000029, -0.07000000000000739, 1.0700000000000074, 74.019997, 75.019997, 5-2-2007
0.18181818181818182, 0.5151515151515151,1.0900040000000075, 1.0700000000000074, -0.02999900000000366, -0.18999499999999614, 75.019997, 74.800003, 5-3-2007
0.2857142857142857, 0.7532467532467533,0.8600009999999969, -0.18999499999999614, 0.1999969999999962, 0.8000030000000038, 74.800003, 75.800003, 5-4-2007
0.25, 0.6388888888888888,1.0200049999999976, 0.8000030000000038, -0.6399990000000031, -0.31000600000000134, 75.800003, 74.849998, 5-5-2007
0.35, 0.7410714285714286,0.75, -0.31000600000000134, -0.09999799999999937, 0.870002999999997, 74.849998, 75.620003, 5-6-2007
0.2727272727272727, 0.7580645161290323,0.9300009999999901, 0.870002999999997, -0.5500030000000038, -0.7300039999999939, 75.620003, 74.339996, 5-7-2007
0.09090909090909091, 0.6111111111111112,1.25, -0.7300039999999939, 0.19000300000000436, 0.10999999999999943, 74.339996, 74.639999, 5-8-2007
0.20833333333333334, 0.6037735849056604,0.7600029999999975, 0.10999999999999943, -0.1599960000000067, 0.009995000000003529, 74.639999, 74.489998, 5-9-2007
0.44, 0.711340206185567,0.8700020000000137, 0.009995000000003529, 0.29000100000000373, -0.09999899999999684, 74.489998, 74.68, 5-10-2007
0.5555555555555556, 0.7901234567901234,1.109993000000003, -0.09999899999999684, 0.12000299999999697, 0.20999899999999627, 74.68, 75.010002, 5-11-2007
0.2631578947368421, 0.6917293233082706,0.8300019999999932, 0.20999899999999627, -0.09999799999999937, 0.5899959999999993, 75.010002, 75.5, 5-12-2007
0.2727272727272727, 0.75,0.7999949999999956, 0.5899959999999993, 0.5599979999999931, 1.75, 75.5, 77.809998, 5-13-2007
0.29411764705882354, 0.6274509803921569,3.2000050000000044, 1.75, -0.7299959999999999, 0.8899990000000031, 77.809998, 77.970001, 5-14-2007
0.42857142857142855, 0.7717391304347826,1.7300039999999939, 0.8899990000000031, -0.3400039999999933, 0.25, 77.970001, 77.879997, 5-15-2007
0.3488372093023256, 0.6239316239316239,0.7099989999999963, 0.25, 0.0, -0.5199960000000061, 77.879997, 77.360001, 5-16-2007
0.48, 0.6949152542372882,1.3199989999999957, -0.5199960000000061, -0.48999799999999993, -0.31000500000000386, 77.360001, 76.559998, 5-17-2007
0.6071428571428571, 0.7355371900826446,0.9600059999999928, -0.31000500000000386, 0.10000600000000759, 0.4499969999999962, 76.559998, 77.110001, 5-18-2007
0.5714285714285714, 0.7058823529411765,0.6700050000000033, 0.4499969999999962, -0.1100009999999969, -0.5999979999999994, 77.110001, 76.400002, 5-19-2007
0.25, 0.6710526315789473,1.0999989999999968, -0.5999979999999994, -0.30000400000000127, 0.9100040000000007, 76.400002, 77.010002, 5-20-2007
0.4090909090909091, 0.7204301075268817,1.5400010000000037, 0.9100040000000007, -0.09999799999999937, -0.7200019999999938, 77.010002, 76.190002, 5-21-2007
0.25, 0.7333333333333333,1.0599979999999931, 0.18000099999999009, -0.39000000000000057, 0.22999599999999987, 76.370003, 76.209999, 6-1-2007
0.5, 0.6451612903225806,0.880004999999997, 0.22999599999999987, -0.3600009999999969, 0.5, 76.209999, 76.349998, 6-2-2007
0.631578947368421, 0.6458333333333334,0.7299959999999999, 0.5, 0.010002999999997542, -0.5900039999999933, 76.349998, 75.769997, 6-3-2007
0.1111111111111111, 0.5869565217391305,0.8600009999999969, -0.5900039999999933, -0.4699939999999998, -1.510002, 75.769997, 73.790001, 6-4-2007
0.6, 0.6491228070175439,1.9799959999999999, -1.510002, 0.010002000000000066, 0.41999799999999254, 73.790001, 74.220001, 6-5-2007
0.4666666666666667, 0.7540983606557377,1.1599959999999925, 0.41999799999999254, -0.27000400000000013, 0.26000200000000007, 74.220001, 74.209999, 6-6-2007
0.42857142857142855, 0.5862068965517241,1.010002, 0.26000200000000007, 0.0, -1.260002, 74.209999, 72.949997, 6-7-2007
0.3, 0.851063829787234,1.3199999999999932, -1.260002, 0.5800020000000075, 0.7000039999999927, 72.949997, 74.230003, 6-8-2007
0.43478260869565216, 0.7051282051282052,1.130004999999997, 0.7000039999999927, -0.15000100000000316, 0.43999500000001035, 74.230003, 74.519997, 6-9-2007
0.13333333333333333, 0.6987951807228916,0.8200000000000074, 0.43999500000001035, 0.9800029999999964, -0.5199970000000036, 74.519997, 74.980003, 6-10-2007
0.3333333333333333, 0.6829268292682927,1.0, -0.5199970000000036, 0.04999600000000726, -0.22000100000001055, 74.980003, 74.809998, 6-11-2007
0.7, 0.7959183673469388,0.8899990000000031, -0.22000100000001055, -0.45999999999999375, 0.45999999999999375, 74.809998, 74.809998, 6-12-2007
0.6666666666666666, 0.7333333333333333,0.8500059999999934, 0.45999999999999375, 0.20000400000000695, -0.8000030000000038, 74.809998, 74.209999, 6-13-2007
0.3333333333333333, 0.7954545454545454,1.3400040000000075, -0.8000030000000038, -0.019996999999989384, 0.41999899999999, 74.209999, 74.610001, 6-14-2007
0.2, 0.6,1.3399959999999993, 0.41999899999999, -0.4300009999999901, -0.5999980000000136, 74.610001, 73.580002, 6-15-2007
0.0, 0.625,1.3499989999999968, -0.5999980000000136, 0.08999600000001351, 0.15000199999998642, 73.580002, 73.82, 6-16-2007
0.16666666666666666, 0.6296296296296297,1.0599969999999956, 0.15000199999998642, 0.5299980000000062, -0.45999899999999627, 73.82, 73.889999, 6-17-2007
0.0, 0.5652173913043478,1.2099989999999963, -0.45999899999999627, -0.6099999999999994, 2.0299989999999895, 73.889999, 75.309998, 6-18-2007
0.1111111111111111, 0.56,2.190002000000007, 2.0299989999999895, -0.3799979999999863, -0.3899990000000031, 75.309998, 74.540001, 6-19-2007
0.2222222222222222, 0.6415094339622641,0.6900020000000069, -0.3899990000000031, 0.29999499999999557, 1.2700049999999976, 74.540001, 76.110001, 6-20-2007
0.3, 0.7205882352941176,0.8000040000000013, 0.3399959999999993, -0.09999899999999684, -0.3199989999999957, 76.949997, 76.529999, 7-1-2007
0.3888888888888889, 0.7777777777777778,0.47999599999999987, -0.3199989999999957, 0.0, 0.9000010000000032, 76.529999, 77.43, 7-2-2007
0.42857142857142855, 0.8,1.239998, 0.9000010000000032, -0.4300000000000068, 0.050003000000003794, 77.43, 77.050003, 7-3-2007
0.16666666666666666, 0.7608695652173914,0.45000400000000695, 0.050003000000003794, 0.18999499999999614, 0.6399990000000031, 77.050003, 77.879997, 7-4-2007
0.2, 0.7115384615384616,0.8599999999999994, 0.6399990000000031, -0.5299990000000037, -0.6399990000000031, 77.879997, 76.709999, 7-5-2007
0.2, 0.582089552238806,0.9900050000000107, -0.6399990000000031, 0.0, 0.23999799999999993, 76.709999, 76.949997, 7-6-2007
0.29411764705882354, 0.64,0.7799980000000062, 0.23999799999999993, 0.18000000000000682, 1.2099989999999963, 76.949997, 78.339996, 7-7-2007
0.25, 0.45,1.389999000000003, 1.2099989999999963, -0.3999939999999924, 0.8699959999999862, 78.339996, 78.809998, 7-8-2007
0.5, 0.7906976744186046,1.1900020000000069, 0.8699959999999862, -0.3099979999999931, 0.20999899999999627, 78.809998, 78.709999, 7-9-2007
0.2727272727272727, 0.6170212765957447,1.2200009999999963, 0.20999899999999627, 0.5599980000000073, 1.3199989999999957, 78.709999, 80.589996, 7-10-2007
0.2608695652173913, 0.5074626865671642,1.4599989999999963, 1.3199989999999957, -0.9699930000000023, 0.7999950000000098, 80.589996, 80.419998, 7-11-2007
0.2972972972972973, 0.594059405940594,1.889999000000003, 0.7999950000000098, -2.769996000000006, 2.8499979999999994, 80.419998, 80.5, 7-12-2007
0.21428571428571427, 0.675,3.7900010000000037, 2.8499979999999994, 0.75, -0.629997000000003, 80.5, 80.620003, 7-13-2007
0.6, 0.7916666666666666,1.5199969999999894, -0.629997000000003, 0.14999400000000662, 1.4299999999999926, 80.620003, 82.199997, 7-14-2007
0.42857142857142855, 0.5555555555555556,2.119995000000003, 1.4299999999999926, -1.0299989999999895, 0.02999899999998945, 82.199997, 81.199997, 7-15-2007
0.5555555555555556, 0.9230769230769231,1.620002999999997, 0.02999899999998945, 0.45000500000000443, -1.3100060000000013, 81.199997, 80.339996, 7-16-2007
0.6, 0.6428571428571429,2.2799989999999895, -1.3100060000000013, -0.869995000000003, -1.7700040000000001, 80.339996, 77.699997, 7-17-2007
0.08333333333333333, 0.6470588235294118,3.1500020000000006, -1.7700040000000001, -0.04999499999999557, -1.5999989999999968, 77.699997, 76.050003, 7-18-2007
0.25, 0.7619047619047619,2.629997000000003, -1.5999989999999968, -0.050003000000003794, 1.3399959999999993, 76.050003, 77.339996, 7-19-2007
0.25, 0.43478260869565216,1.9100040000000007, 1.3399959999999993, 0.3000030000000038, -1.3700019999999995, 77.339996, 76.269997, 7-20-2007
0.0, 0.4166666666666667,3.4799950000000024, 2.4900050000000107, 0.08999699999999677, -0.47000100000001055, 78.940002, 78.559998, 8-1-2007
0.4166666666666667, 0.6216216216216216,1.610000999999997, -0.47000100000001055, 0.23000300000001062, -2.510002, 78.559998, 76.279999, 8-2-2007
0.5555555555555556, 0.7777777777777778,2.870002999999997, -2.510002, 0.5999979999999994, 1.18000099999999, 76.279999, 78.059998, 8-3-2007
0.5, 0.6129032258064516,2.7900009999999895, 1.18000099999999, -0.799995999999993, 0.40000200000000063, 78.059998, 77.660004, 8-4-2007
0.25, 0.5666666666666667,2.060005000000004, 0.40000200000000063, -0.0700080000000014, -1.0899959999999993, 77.660004, 76.5, 8-5-2007
0.0, 0.6086956521739131,1.9700019999999938, -1.0899959999999993, -1.7699970000000036, -2.5400009999999895, 76.5, 72.190002, 8-6-2007
0.3333333333333333, 0.4642857142857143,3.229996, -2.5400009999999895, -0.4900050000000107, 2.75, 72.190002, 74.449997, 8-7-2007
0.8, 0.8461538461538461,4.05000299999999, 2.75, 0.5500030000000038, 0.2699970000000036, 74.449997, 75.269997, 8-8-2007
0.5263157894736842, 0.7096774193548387,1.5599979999999931, 0.2699970000000036, 0.38000499999999704, -3.370002999999997, 75.269997, 72.279999, 8-9-2007
0.125, 0.47619047619047616,3.5699989999999957, -3.370002999999997, -0.27999900000000366, -1.4300000000000068, 72.279999, 70.57, 8-10-2007
0.3333333333333333, 0.5333333333333333,2.299995999999993, -1.4300000000000068, -0.3399969999999968, 1.119995000000003, 70.57, 71.349998, 8-11-2007
0.3333333333333333, 0.5789473684210527,4.190002000000007, 1.119995000000003, 2.5, -1.4799950000000024, 71.349998, 72.370003, 8-12-2007
0.3076923076923077, 0.5294117647058824,2.8600000000000136, -1.4799950000000024, 0.2299950000000024, 0.7799990000000037, 72.370003, 73.379997, 8-13-2007
0.0, 0.6,1.1999969999999962, 0.7799990000000037, 0.47000099999999634, -0.9799950000000024, 73.379997, 72.870003, 8-14-2007
0.6666666666666666, 0.7391304347826086,1.4199980000000068, -0.9799950000000024, 0.509994000000006, -0.20999899999999627, 72.870003, 73.169998, 8-15-2007
0.25, 0.6363636363636364,1.3099979999999931, -0.20999899999999627, 0.1799999999999926, -0.5699989999999957, 73.169998, 72.779999, 8-16-2007
0.0, 0.5625,1.7799990000000037, -0.5699989999999957, -0.27999900000000366, 1.5, 72.779999, 74.0, 8-17-2007
0.15789473684210525, 0.56,1.6600040000000007, 1.5, -0.27999900000000366, -0.47000099999999634, 74.0, 73.25, 8-18-2007
0.15384615384615385, 0.5925925925925926,0.8400039999999933, -0.47000099999999634, -0.3000030000000038, -1.6699979999999925, 73.25, 71.279999, 8-19-2007
0.5, 0.5625,2.010002, -1.6699979999999925, 0.6600030000000032, 1.4499969999999962, 71.279999, 73.389999, 8-20-2007
0.25, 0.6296296296296297,1.7700040000000001, 1.4499969999999962, -0.7900010000000037, 0.9000020000000006, 73.389999, 73.5, 8-21-2007
0.25, 0.65,1.31999900000001, 0.9000020000000006, 0.9000020000000006, -1.0500040000000013, 73.5, 73.349998, 8-22-2007
0.0, 0.5555555555555556,1.239998, -0.020004999999997608, -0.7399979999999999, 0.08000199999999325, 73.629997, 72.970001, 9-1-2007
0.2222222222222222, 0.5714285714285714,1.2099989999999963, 0.08000199999999325, 0.379997000000003, 0.45999999999999375, 72.970001, 73.809998, 9-2-2007
0.3, 0.7272727272727273,1.4599990000000105, 0.45999999999999375, -0.8600009999999969, -1.8499989999999968, 73.809998, 71.099998, 9-3-2007
0.25, 0.5769230769230769,2.0799939999999992, -1.8499989999999968, 0.26000299999999754, 0.010002000000000066, 71.099998, 71.370003, 9-4-2007
0.2222222222222222, 0.5416666666666666,1.6600040000000007, 0.010002000000000066, 0.4799950000000024, 0.7000050000000044, 71.370003, 72.550003, 9-5-2007
0.5, 0.7619047619047619,1.0, 0.7000050000000044, -0.10000600000000759, 2.050003000000004, 72.550003, 74.5, 9-6-2007
0.2857142857142857, 0.7058823529411765,2.5399929999999955, 2.050003000000004, 0.8600009999999969, -0.34999899999999684, 74.5, 75.010002, 9-7-2007
0.14285714285714285, 0.5483870967741935,1.0300069999999977, -0.34999899999999684, -0.1900020000000069, -0.9800039999999939, 75.010002, 73.839996, 9-8-2007
0.18181818181818182, 0.5675675675675675,1.609993000000003, -0.9800039999999939, -0.1399990000000031, -0.02999899999998945, 73.839996, 73.669998, 9-9-2007
0.2222222222222222, 0.5789473684210527,0.9099960000000067, -0.02999899999998945, 0.4299999999999926, 1.5999989999999968, 73.669998, 75.699997, 9-10-2007
0.3333333333333333, 0.6153846153846154,2.449996999999996, 1.5999989999999968, 0.7900010000000037, 0.8899990000000031, 75.699997, 77.379997, 9-11-2007
0.6666666666666666, 0.6,1.75, 0.8899990000000031, -0.16999800000000675, -2.0499949999999956, 77.379997, 75.160004, 9-12-2007
0.2, 0.5294117647058824,2.2100070000000045, -2.0499949999999956, 0.5299980000000062, -0.6900020000000069, 75.160004, 75.0, 9-13-2007
0.16666666666666666, 0.8703703703703703,1.2900010000000037, -0.6900020000000069, 0.3000030000000038, -0.7100070000000045, 75.0, 74.589996, 9-14-2007
0.05263157894736842, 0.5692307692307692,1.4400030000000044, -0.7100070000000045, -0.039992999999995504, 0.619995000000003, 74.589996, 75.169998, 9-15-2007
0.25, 0.6470588235294118,1.2900010000000037, 0.619995000000003, 0.3000029999999896, 0.12999700000000303, 75.169998, 75.599998, 9-16-2007
0.2, 0.45454545454545453,1.1799999999999926, 0.12999700000000303, 0.20000500000000443, 0.3600009999999969, 75.599998, 76.160004, 9-17-2007
0.25, 0.6538461538461539,1.620002999999997, 0.3600009999999969, -0.3500060000000076, -0.2599949999999893, 76.160004, 75.550003, 9-18-2007
0.15151515151515152, 0.5927835051546392,1.75, 1.370002999999997, -0.4300010000000043, -0.2300029999999964, 76.910004, 76.25, 10-1-2007
0.24444444444444444, 0.6144578313253012,1.0999979999999994, -0.2300029999999964, -0.4499969999999962, 0.47999599999999987, 76.25, 76.279999, 10-2-2007
0.3695652173913043, 0.7123287671232876,1.0299990000000037, 0.47999599999999987, 0.13000499999999704, 0.45999899999999627, 76.279999, 76.870003, 10-3-2007
0.3888888888888889, 0.6569767441860465,1.4700010000000105, 0.45999899999999627, 0.8299939999999992, 0.8300020000000075, 76.870003, 78.529999, 10-4-2007
0.2857142857142857, 0.7104072398190046,1.5999979999999994, 0.8300020000000075, -0.4300010000000043, -0.6500010000000032, 78.529999, 77.449997, 10-5-2007
0.22033898305084745, 0.7160493827160493,1.489998, -0.6500010000000032, 0.06000500000000386, 0.6699980000000068, 77.449997, 78.18, 10-6-2007
0.3157894736842105, 0.680672268907563,1.2099989999999963, 0.6699980000000068, -0.01999600000000612, 0.09999799999999937, 78.18, 78.260002, 10-7-2007
0.4117647058823529, 0.7370689655172413,1.3000030000000038, 0.09999799999999937, 0.379997000000003, -0.5, 78.260002, 78.139999, 10-8-2007
0.38823529411764707, 0.6776859504132231,1.950004000000007, -0.5, 0.3600009999999969, 0.5599979999999931, 78.139999, 79.059998, 10-9-2007
0.36363636363636365, 0.7440944881889764,1.1000059999999934, 0.5599979999999931, 0.20000400000000695, -1.2799990000000037, 79.059998, 77.980003, 10-10-2007
0.21568627450980393, 0.676829268292683,2.5799939999999992, -1.2799990000000037, -0.09000399999999331, 0.6800009999999901, 77.980003, 78.57, 10-11-2007
0.0967741935483871, 0.5771428571428572,1.489998, 0.6800009999999901, 0.4300000000000068, -1.3000030000000038, 78.57, 77.699997, 10-12-2007
0.35185185185185186, 0.688,2.4700009999999963, -1.3000030000000038, -1.6999969999999962, -0.629997000000003, 77.699997, 75.370003, 10-13-2007
0.2127659574468085, 0.6845637583892618,2.319999999999993, -0.629997000000003, -0.26000200000000007, -0.9599989999999963, 75.370003, 74.150002, 10-14-2007
0.36065573770491804, 0.6825396825396826,1.4299999999999926, -0.9599989999999963, -0.7099999999999937, 1.0299989999999895, 74.150002, 74.470001, 10-15-2007
0.2830188679245283, 0.6858974358974359,1.549995999999993, 1.0299989999999895, 0.629997000000003, -0.3199989999999957, 74.470001, 74.779999, 10-16-2007
0.40540540540540543, 0.6538461538461539,1.549995999999993, -0.3199989999999957, -0.29000100000000373, 0.020004000000000133, 74.779999, 74.510002, 10-17-2007
0.35, 0.6894409937888198,0.9799959999999999, 0.020004000000000133, 0.12999700000000303, -1.1999969999999962, 74.510002, 73.440002, 10-18-2007
0.22641509433962265, 0.6473684210526316,1.9499969999999962, -1.1999969999999962, 0.6999969999999962, -0.5999979999999994, 73.440002, 73.540001, 10-19-2007
0.4, 0.717391304347826,0.8899990000000031, -0.5999979999999994, 0.45999899999999627, 0.08000199999999325, 73.540001, 74.080002, 10-20-2007
0.2631578947368421, 0.6666666666666666,0.6699990000000042, 0.08000199999999325, -0.20999899999999627, -1.0300069999999977, 74.080002, 72.839996, 10-21-2007
0.5333333333333333, 0.6916666666666667,1.359993000000003, -1.0300069999999977, 0.4100040000000007, 1.489998, 72.839996, 74.739998, 10-22-2007
0.42857142857142855, 0.41935483870967744,1.6999969999999962, -1.5400010000000037, 0.9700010000000105, -0.6500010000000032, 72.959999, 73.279999, 11-1-2007
0.4, 0.7105263157894737,1.5500030000000038, -0.6500010000000032, -0.29000100000000373, -0.5199970000000036, 73.279999, 72.470001, 11-2-2007
0.2, 0.7027027027027027,1.3300019999999932, -0.5199970000000036, 0.5299990000000037, 0.7300029999999964, 72.470001, 73.730003, 11-3-2007
0.2, 0.56,1.8999940000000066, 0.7300029999999964, -0.9299999999999926, -2.3200000000000074, 73.730003, 70.480003, 11-4-2007
0.18181818181818182, 0.42857142857142855,2.3999940000000066, -2.3200000000000074, 0.05999800000000732, 1.0899959999999993, 70.480003, 71.629997, 11-5-2007
0.2, 0.6666666666666666,2.0800020000000075, 1.0899959999999993, -1.0, -1.3599999999999994, 71.629997, 69.269997, 11-6-2007
0.3333333333333333, 0.6285714285714286,1.6900030000000044, -1.3599999999999994, -0.25999500000000353, -0.5200040000000001, 69.269997, 68.489998, 11-7-2007
0.36363636363636365, 0.75,1.4300010000000043, -0.5200040000000001, 0.7799990000000037, -0.6699990000000042, 68.489998, 68.599998, 11-8-2007
0.15384615384615385, 0.5454545454545454,1.3000030000000038, -0.6699990000000042, 0.5500040000000013, -1.0700000000000074, 68.599998, 68.080002, 11-9-2007
0.2727272727272727, 0.725,1.139999000000003, -1.0700000000000074, -0.27999899999998945, -0.4400020000000069, 68.080002, 67.360001, 11-10-2007
0.3333333333333333, 0.7916666666666666,2.0500040000000013, -0.4400020000000069, 0.3199990000000099, -0.8899990000000031, 67.360001, 66.790001, 11-11-2007
0.0, 0.5714285714285714,1.9700009999999963, -0.8899990000000031, -0.1600040000000007, -1.1999969999999962, 66.790001, 65.43, 11-12-2007
0.4166666666666667, 0.7666666666666667,1.5900040000000075, -1.1999969999999962, -0.029998000000006186, 0.8499979999999994, 65.43, 66.25, 11-13-2007
0.4444444444444444, 0.72,1.6700060000000008, 0.8499979999999994, -0.879997000000003, 0.04000100000000373, 66.25, 65.410004, 11-14-2007
0.0, 0.7083333333333334,1.0700000000000074, 0.04000100000000373, 0.5599969999999956, 0.5299990000000037, 65.410004, 66.5, 11-15-2007
0.45454545454545453, 0.7096774193548387,1.2100070000000045, 0.5299990000000037, -0.050003000000003794, -0.4499969999999962, 66.5, 66.0, 11-16-2007
0.4117647058823529, 0.5740740740740741,2.219994, -0.4499969999999962, 0.20999899999999627, -0.20999899999999627, 66.0, 66.0, 11-17-2007
0.3333333333333333, 0.7857142857142857,1.8899999999999864, -0.20999899999999627, 0.06999999999999318, 2.56999900000001, 66.0, 68.639999, 11-18-2007
0.3, 0.6571428571428571,2.5800020000000075, 2.56999900000001, -0.35999999999999943, 0.13000499999999704, 68.639999, 68.410004, 11-19-2007
0.1, 0.6216216216216216,2.510002, 0.13000499999999704, 0.6799919999999986, -0.4499969999999962, 68.410004, 68.639999, 11-20-2007
0.16666666666666666, 0.746031746031746,0.9600070000000045, 0.2699960000000061, -0.2699960000000061, -0.09000400000000752, 68.43, 68.07, 12-1-2007
0.375, 0.6060606060606061,0.9500050000000044, -0.09000400000000752, 0.7699960000000061, -0.0699989999999957, 68.07, 68.769997, 12-2-2007
0.0, 0.6666666666666666,0.5399929999999955, -0.0699989999999957, -0.019997000000003595, 0.25, 68.769997, 69.0, 12-3-2007
0.4, 0.7857142857142857,0.9100040000000007, 0.25, 0.5500030000000038, 0.7299959999999999, 69.0, 70.279999, 12-4-2007
0.3333333333333333, 0.6486486486486487,1.4100040000000007, 0.7299959999999999, 0.5299989999999895, 0.04000000000000625, 70.279999, 70.849998, 12-5-2007
0.14285714285714285, 0.5121951219512195,0.8600009999999969, 0.04000000000000625, 0.07000000000000739, -2.379997000000003, 70.849998, 68.540001, 12-6-2007
0.38461538461538464, 0.5757575757575758,2.5199969999999894, -2.379997000000003, 1.4000010000000032, -0.33000100000001, 68.540001, 69.610001, 12-7-2007
0.3333333333333333, 0.6470588235294118,1.8000030000000038, -0.33000100000001, 0.029998000000006186, 0.8600009999999969, 69.610001, 70.5, 12-8-2007
0.3076923076923077, 0.5681818181818182,1.4599989999999963, 0.8600009999999969, -1.110000999999997, 0.010002999999997542, 70.5, 69.400002, 12-9-2007
0.3333333333333333, 0.5833333333333334,1.0500030000000038, 0.010002999999997542, 0.05999699999999564, -1.4599989999999963, 69.400002, 68.0, 12-10-2007
0.2857142857142857, 0.6170212765957447,1.5799939999999992, -1.4599989999999963, 0.8000030000000038, 0.6499939999999924, 68.0, 69.449997, 12-11-2007
0.2, 0.5454545454545454,1.6999970000000104, 0.6499939999999924, 0.5, -1.2599949999999893, 69.449997, 68.690002, 12-12-2007
0.3333333333333333, 0.6060606060606061,1.629997000000003, -1.2599949999999893, 0.4099959999999925, 0.7099999999999937, 68.690002, 69.809998, 12-13-2007
0.0, 0.52,1.370002999999997, 0.7099999999999937, 0.6800000000000068, 1.2300029999999964, 69.809998, 71.720001, 12-14-2007
0.5555555555555556, 0.6296296296296297,2.18000099999999, 1.2300029999999964, 0.010002000000000066, 0.07000000000000739, 71.720001, 71.800003, 12-15-2007
0.16666666666666666, 0.48148148148148145,0.6999969999999962, 0.07000000000000739, -0.23000300000001062, 0.29000100000000373, 71.800003, 71.860001, 12-16-2007
0.26666666666666666, 0.6190476190476191,1.0599979999999931, 0.29000100000000373, -3.110000999999997, 1.8499979999999994, 71.860001, 70.599998, 12-17-2007
0.5555555555555556, 0.72,2.239998, 1.8499979999999994, 0.7300039999999939, -0.9000019999999864, 70.599998, 70.43, 12-18-2007
0.21428571428571427, 0.6956521739130435,1.4599990000000105, -0.9000019999999864, -0.050003000000003794, -0.14999400000000662, 70.43, 70.230003, 12-19-2007
0.6666666666666666, 0.75,2.889999000000003, -2.4000020000000006, 0.31000600000000134, -1.0800020000000075, 68.599998, 67.830002, 1-1-2008
0.25, 0.5952380952380952,1.489998, -1.0800020000000075, -0.4500049999999902, -0.7199930000000023, 67.830002, 66.660004, 1-2-2008
0.16666666666666666, 0.5526315789473685,1.0199970000000036, -0.7199930000000023, 0.7999949999999956, -0.45999899999999627, 66.660004, 67.0, 1-3-2008
0.0, 0.5555555555555556,2.020004, -0.45999899999999627, 0.45999899999999627, -2.239998, 67.0, 65.220001, 1-4-2008
0.18181818181818182, 0.6363636363636364,2.8499979999999994, -2.239998, -1.3399999999999963, 1.1499980000000036, 65.220001, 65.029999, 1-5-2008
0.3, 0.6875,2.0600009999999997, 1.1499980000000036, -0.08999699999999677, 0.16999899999999002, 65.029999, 65.110001, 1-6-2008
0.5, 0.5263157894736842,2.1700020000000038, 0.16999899999999002, -0.4700019999999938, -1.4399980000000028, 65.110001, 63.200001, 1-7-2008
0.2, 0.6190476190476191,1.5200000000000031, -1.4399980000000028, 0.1399990000000031, 1.2400019999999898, 63.200001, 64.580002, 1-8-2008
0.1111111111111111, 0.696969696969697,1.5399969999999996, 1.2400019999999898, -1.2100029999999933, -1.119999, 64.580002, 62.25, 1-9-2008
0.2727272727272727, 0.5,1.9000020000000006, -1.119999, 0.25999800000000306, -0.9399980000000028, 62.25, 61.57, 1-10-2008
0.5, 0.5714285714285714,1.7699960000000061, -0.9399980000000028, 1.9900009999999995, -0.9200019999999967, 61.57, 62.639999, 1-11-2008
0.2727272727272727, 0.6,3.7099989999999963, -0.9200019999999967, -0.16999799999999965, -0.4100000000000037, 62.639999, 62.060001, 1-12-2008
0.3333333333333333, 0.8125,3.1700019999999967, -0.4100000000000037, -2.950000000000003, 2.399997000000006, 62.060001, 61.509998, 1-13-2008
0.0, 0.375,3.4100000000000037, 2.399997000000006, -1.6799960000000027, 4.099997999999999, 61.509998, 63.93, 1-14-2008
0.3333333333333333, 0.6086956521739131,5.409999999999997, 4.099997999999999, -0.17000199999999666, 0.020000999999993496, 63.93, 63.779999, 1-15-2008
0.06666666666666667, 0.45161290322580644,2.109997, 0.020000999999993496, 1.0100020000000072, -1.7900010000000037, 63.779999, 63.0, 1-16-2008
0.4666666666666667, 0.7073170731707317,3.0499989999999997, -1.7900010000000037, 0.3200000000000003, 1.1799999999999997, 63.0, 64.5, 1-17-2008
0.05263157894736842, 0.34146341463414637,2.0899969999999897, 1.1799999999999997, 0.5299990000000037, -0.48999799999999993, 64.5, 64.540001, 1-18-2008
0.13043478260869565, 0.5,1.3600000000000136, -0.48999799999999993, -0.04000100000000373, -0.6100009999999969, 64.540001, 63.889999, 1-19-2008
0.08333333333333333, 0.46875,2.2900050000000007, -0.6100009999999969, -0.29000100000000373, 1.7700049999999976, 63.889999, 65.370003, 1-20-2008
0.5, 0.625,1.5400010000000037, 1.2099990000000105, 0.5599979999999931, -1.3300019999999932, 67.190002, 66.419998, 2-1-2008
0.2, 0.4772727272727273,1.6599960000000067, -1.3300019999999932, -1.259994000000006, -0.8200080000000014, 66.419998, 64.339996, 2-2-2008
0.36363636363636365, 0.6578947368421053,1.620002999999997, -0.8200080000000014, 0.740005999999994, -0.4299999999999926, 64.339996, 64.650002, 2-3-2008
0.19047619047619047, 0.5238095238095238,1.619995000000003, -0.4299999999999926, -0.6900029999999973, 0.3799969999999959, 64.650002, 64.339996, 2-4-2008
0.15384615384615385, 0.4074074074074074,1.3200000000000003, 0.3799969999999959, -0.4099959999999996, 0.44000299999999726, 64.339996, 64.370003, 2-5-2008
0.2777777777777778, 0.575,1.3100049999999968, 0.44000299999999726, -0.370002999999997, 0.8000030000000038, 64.370003, 64.800003, 2-6-2008
0.25, 0.5652173913043478,1.2200019999999938, 0.8000030000000038, -0.18000000000000682, 0.4499969999999962, 64.800003, 65.07, 2-7-2008
0.0, 0.375,1.5199960000000061, 0.4499969999999962, 0.9199980000000068, -0.41999800000000675, 65.07, 65.57, 2-8-2008
0.25, 0.6086956521739131,1.390006999999997, -0.41999800000000675, -0.09999899999999684, -1.2799989999999895, 65.57, 64.190002, 2-9-2008
0.16666666666666666, 0.48,1.510002, -1.2799989999999895, -0.1700050000000033, -0.16999900000000423, 64.190002, 63.849998, 2-10-2008
0.09090909090909091, 0.525,1.390003, -0.16999900000000423, 0.8600009999999969, 0.5299990000000037, 63.849998, 65.239998, 2-11-2008
0.125, 0.5714285714285714,1.3000029999999896, 0.5299990000000037, -2.749996000000003, 1.1999970000000033, 65.239998, 63.689999, 2-12-2008
0.16666666666666666, 0.4827586206896552,1.5999940000000024, 1.1999970000000033, 0.390002999999993, -0.08000199999999325, 63.689999, 64.0, 2-13-2008
0.3333333333333333, 0.6666666666666666,0.8999979999999965, -0.08000199999999325, 0.3899990000000031, -0.010002000000000066, 64.0, 64.379997, 2-14-2008
0.2, 0.5,1.5300020000000103, -0.010002000000000066, 0.20999899999999627, 1.4100040000000007, 64.379997, 66.0, 2-15-2008
0.0, 0.3333333333333333,1.8399959999999993, 1.4100040000000007, -0.2300029999999964, -0.009995000000003529, 66.0, 65.760002, 2-16-2008
0.18181818181818182, 0.5555555555555556,1.2900010000000037, -0.009995000000003529, -0.27000400000000013, -0.3099979999999931, 65.760002, 65.18, 2-17-2008
0.16666666666666666, 0.5517241379310345,1.1599959999999925, -0.3099979999999931, -0.7699960000000061, -0.5300030000000007, 65.18, 63.880001, 2-18-2008
0.26666666666666666, 0.6341463414634146,1.7700049999999976, -0.5300030000000007, -0.3500020000000035, -1.5499989999999997, 63.880001, 61.98, 2-19-2008
0.0, 0.7037037037037037,1.0, 0.6399990000000031, -0.6699979999999996, -0.7200010000000034, 62.669998, 61.279999, 3-1-2008
0.09090909090909091, 0.5806451612903226,1.8699980000000025, -0.7200010000000034, 0.2299990000000065, 0.23000399999999388, 61.279999, 61.740002, 3-2-2008
0.16666666666666666, 0.5918367346938775,1.0200009999999935, 0.23000399999999388, -0.6900029999999973, -0.39999699999999905, 61.740002, 60.650002, 3-3-2008
0.16666666666666666, 0.6571428571428571,1.1599999999999966, -0.39999699999999905, -0.600003000000001, -1.4799989999999994, 60.650002, 58.57, 3-4-2008
0.2857142857142857, 0.5757575757575758,1.8400000000000034, -1.4799989999999994, 0.17000199999999666, -1.240001999999997, 58.57, 57.5, 3-5-2008
0.08333333333333333, 0.5517241379310345,1.490001999999997, -1.240001999999997, 1.7900009999999966, 0.43999900000000025, 57.5, 59.73, 3-6-2008
0.21428571428571427, 0.5882352941176471,1.9599999999999937, 0.43999900000000025, -0.22999999999999687, 0.3200000000000003, 59.73, 59.82, 3-7-2008
0.14285714285714285, 0.42857142857142855,1.5500029999999967, 0.3200000000000003, -0.7099990000000034, 1.4599990000000034, 59.82, 60.57, 3-8-2008
0.2727272727272727, 0.43333333333333335,2.5900000000000034, 1.4599990000000034, 0.20000000000000284, -1.760002, 60.57, 59.009998, 3-9-2008
0.18181818181818182, 0.53125,2.9599990000000034, -1.760002, -1.2999989999999997, 0.2900009999999966, 59.009998, 58.0, 3-10-2008
0.0, 0.5454545454545454,2.159998999999999, 0.2900009999999966, 1.7000010000000003, 0.23999799999999993, 58.0, 59.939999, 3-11-2008
0.4, 0.7619047619047619,2.4700010000000034, 0.23999799999999993, 0.7400009999999995, -2.279997999999999, 59.939999, 58.400002, 3-12-2008
0.14285714285714285, 0.6216216216216216,2.779997999999999, -2.279997999999999, 0.06999900000000281, 0.5699999999999932, 58.400002, 59.040001, 3-13-2008
0.5555555555555556, 0.5652173913043478,1.370002999999997, 0.5699999999999932, -0.139998999999996, 1.649996999999999, 59.040001, 60.549999, 3-14-2008
0.17647058823529413, 0.5517241379310345,3.180000999999997, 1.649996999999999, 0.44000299999999726, 0.06999900000000281, 60.549999, 61.060001, 3-15-2008
0.125, 0.8064516129032258,1.139999000000003, 0.06999900000000281, -0.2800020000000032, -1.0, 61.060001, 59.779999, 3-16-2008
0.2727272727272727, 0.5454545454545454,1.5999980000000065, -1.0, 0.26000200000000007, -0.45999899999999627, 59.779999, 59.580002, 3-17-2008
0.125, 0.6774193548387096,1.630001, -0.45999899999999627, 0.3599969999999999, -0.6600000000000037, 59.580002, 59.279999, 3-18-2008
0.3333333333333333, 0.7,1.1899990000000003, -0.6600000000000037, -0.4300009999999972, 1.6600000000000037, 59.279999, 60.509998, 3-19-2008
0.375, 0.4482758620689655,2.380001, 1.9500009999999932, -0.4799999999999969, 1.0700000000000003, 62.540001, 63.130001, 4-1-2008
0.3333333333333333, 0.65625,2.1399959999999965, 1.0700000000000003, -0.3500020000000035, 0.6800000000000068, 63.130001, 63.459999, 4-2-2008
0.25, 0.7391304347826086,2.1899990000000003, 0.6800000000000068, 0.17000199999999666, 1.179996999999993, 63.459999, 64.809998, 4-3-2008
0.09090909090909091, 0.4642857142857143,1.9299999999999997, 1.179996999999993, 0.6100000000000136, -1.6299970000000101, 64.809998, 63.790001, 4-4-2008
0.25, 0.5454545454545454,1.8399960000000064, -1.6299970000000101, -0.19000299999999726, 0.2700010000000006, 63.790001, 63.869999, 4-5-2008
0.0, 0.5238095238095238,0.8400000000000034, 0.2700010000000006, 0.25999800000000306, -0.8599969999999999, 63.869999, 63.27, 4-6-2008
0.25, 0.41935483870967744,1.3499980000000065, -0.8599969999999999, -0.11999800000000249, 0.5499989999999997, 63.27, 63.700001, 4-7-2008
0.14285714285714285, 0.6046511627906976,1.4000019999999935, 0.5499989999999997, -0.6100009999999969, 0.0899999999999963, 63.700001, 63.18, 4-8-2008
0.4666666666666667, 0.6862745098039216,1.249999999999993, 0.0899999999999963, 0.5299990000000037, -1.0, 63.18, 62.709999, 4-9-2008
0.4666666666666667, 0.6382978723404256,1.0700000000000003, -1.0, 0.22000099999999634, 0.09999899999999684, 62.709999, 63.029999, 4-10-2008
0.2222222222222222, 0.3,0.9799999999999969, 0.09999899999999684, 0.4100000000000037, 2.4799990000000065, 63.029999, 65.919998, 4-11-2008
0.0, 0.6111111111111112,2.62999700000001, 2.4799990000000065, -0.4599990000000105, -0.7099989999999963, 65.919998, 64.75, 4-12-2008
0.2222222222222222, 0.6206896551724138,1.9099960000000067, -0.7099989999999963, 1.4199980000000068, 0.24000599999999395, 64.75, 66.410004, 4-13-2008
0.2727272727272727, 0.6296296296296297,1.639999000000003, 0.24000599999999395, -0.6900030000000044, -0.35999999999999943, 66.410004, 65.360001, 4-14-2008
0.0, 0.45,1.2899940000000072, -0.35999999999999943, -0.48999799999999993, -0.1100009999999969, 65.360001, 64.760002, 4-15-2008
0.3333333333333333, 0.59375,1.5600010000000069, -0.1100009999999969, 0.22000099999999634, -1.7100029999999933, 64.760002, 63.27, 4-16-2008
0.2857142857142857, 0.6585365853658537,2.5400009999999966, -1.7100029999999933, -0.029998000000006186, 0.4299960000000027, 63.27, 63.669998, 4-17-2008
0.375, 0.6206896551724138,1.5599979999999931, 0.4299960000000027, 0.4100039999999936, 0.759994000000006, 63.669998, 64.839996, 4-18-2008
0.3, 0.631578947368421,1.3499980000000065, 0.759994000000006, 0.3000030000000038, -1.7200010000000034, 64.839996, 63.419998, 4-19-2008
0.125, 0.5862068965517241,3.559998, -1.7200010000000034, -0.20999899999999627, -0.879997000000003, 63.419998, 62.330002, 4-20-2008
0.2, 0.6875,1.5, -0.879997000000003, -0.15000200000000063, -0.8100009999999997, 62.330002, 61.369999, 4-21-2008
0.2857142857142857, 0.71875,2.3100019999999972, 1.1500019999999935, 0.29000100000000373, 0.14999699999999905, 62.41, 62.849998, 5-1-2008
0.14285714285714285, 0.6129032258064516,1.260002, 0.14999699999999905, -0.0899999999999963, 0.4800039999999939, 62.849998, 63.240002, 5-2-2008
0.16666666666666666, 0.5172413793103449,1.279997999999999, 0.4800039999999939, -0.030002999999993563, 0.12000299999999697, 63.240002, 63.330002, 5-3-2008
0.46153846153846156, 0.6923076923076923,1.3099970000000027, 0.12000299999999697, 0.019995999999999015, -0.5899999999999963, 63.330002, 62.759998, 5-4-2008
0.6666666666666666, 0.7857142857142857,1.3600009999999898, -0.5899999999999963, 0.0, 0.35000299999999385, 62.759998, 63.110001, 5-5-2008
0.25, 0.75,0.9700010000000034, 0.35000299999999385, -0.9599989999999963, -0.07000000000000028, 63.110001, 62.080002, 5-6-2008
0.5714285714285714, 0.6842105263157895,1.0499989999999997, -0.07000000000000028, 0.3899990000000031, 0.5299989999999966, 62.080002, 63.0, 5-7-2008
0.2222222222222222, 0.6764705882352942,1.7299999999999969, 0.5299989999999966, -0.25, 0.8600009999999969, 63.0, 63.610001, 5-8-2008
0.16666666666666666, 0.42105263157894735,0.8600009999999969, 0.8600009999999969, 0.2799980000000062, 1.0599979999999931, 63.610001, 64.949997, 5-9-2008
0.29411764705882354, 0.4722222222222222,1.8400000000000034, 1.0599979999999931, 0.1600040000000007, 0.5100020000000001, 64.949997, 65.620003, 5-10-2008
0.25, 0.5517241379310345,1.4800030000000106, 0.5100020000000001, -0.20000499999999022, 0.8199999999999932, 65.620003, 66.239998, 5-11-2008
0.25, 0.7272727272727273,1.0400009999999895, 0.8199999999999932, -0.049995999999993046, -1.510002, 66.239998, 64.68, 5-12-2008
0.36363636363636365, 0.5348837209302325,1.760002, -1.510002, -0.6699980000000068, 0.5799939999999992, 64.68, 64.589996, 5-13-2008
0.0, 0.7,0.9199980000000068, 0.5799939999999992, 0.08000200000000746, -1.2599980000000102, 64.589996, 63.41, 5-14-2008
0.5714285714285714, 0.5714285714285714,1.6999969999999962, -1.2599980000000102, 0.3400000000000034, -0.08000200000000035, 63.41, 63.669998, 5-15-2008
0.46153846153846156, 0.59375,1.0800020000000004, -0.08000200000000035, 0.010002000000000066, -1.2099989999999963, 63.669998, 62.470001, 5-16-2008
0.18181818181818182, 0.4827586206896552,1.4200020000000038, -1.2099989999999963, 0.020000999999993496, -0.2700009999999935, 62.470001, 62.220001, 5-17-2008
0.4, 0.8571428571428571,1.010002, -0.2700009999999935, 0.3600009999999969, 0.7799989999999966, 62.220001, 63.360001, 5-18-2008
0.18181818181818182, 0.5454545454545454,1.3400009999999938, 0.7799989999999966, -0.6500019999999935, 0.7000009999999932, 63.360001, 63.41, 5-19-2008
0.0, 0.5882352941176471,1.4400029999999973, 0.7000009999999932, 0.3400000000000034, -0.7200010000000034, 63.41, 63.029999, 5-20-2008
0.18181818181818182, 0.6111111111111112,0.8399999999999963, -0.3199990000000028, -1.6300019999999975, 0.5500040000000013, 62.48, 61.400002, 6-1-2008
0.4444444444444444, 0.6538461538461539,1.3300020000000004, 0.5500040000000013, 0.02999799999999908, 0.4300009999999972, 61.400002, 61.860001, 6-2-2008
0.09090909090909091, 0.625,1.4400020000000069, 0.4300009999999972, 0.6100000000000065, 0.6399999999999935, 61.860001, 63.110001, 6-3-2008
0.16666666666666666, 0.5833333333333334,1.1399999999999935, 0.6399999999999935, -0.4099999999999966, -1.4700010000000034, 63.110001, 61.23, 6-4-2008
0.125, 0.5277777777777778,1.5200010000000006, -1.4700010000000034, 0.3199990000000028, -0.6699979999999996, 61.23, 60.880001, 6-5-2008
0.25, 0.4827586206896552,1.4799990000000065, -0.6699979999999996, -0.7999989999999997, 0.269995999999999, 60.880001, 60.349998, 6-6-2008
0.4, 0.7037037037037037,1.0699990000000028, 0.269995999999999, -0.18999800000000278, -0.1599999999999966, 60.349998, 60.0, 6-7-2008
0.18181818181818182, 0.5882352941176471,0.8800019999999975, -0.1599999999999966, 0.0, -0.24000199999999694, 60.0, 59.759998, 6-8-2008
0.3333333333333333, 0.6875,1.119999, -0.24000199999999694, 0.24000199999999694, 1.9700010000000034, 59.759998, 61.970001, 6-9-2008
0.26666666666666666, 0.6153846153846154,2.149996999999999, 1.9700010000000034, -0.42000200000000376, 0.3100019999999972, 61.970001, 61.860001, 6-10-2008
0.0625, 0.35135135135135137,0.9300009999999972, 0.3100019999999972, 0.2299990000000065, -0.5, 61.860001, 61.59, 6-11-2008
0.8, 0.7241379310344828,0.9799999999999969, -0.5, -0.2700000000000031, -0.6400000000000006, 61.59, 60.68, 6-12-2008
0.25, 0.48717948717948717,1.0600019999999972, -0.6400000000000006, -0.02999799999999908, 0.3199990000000028, 60.68, 60.970001, 6-13-2008
0.5, 0.6842105263157895,1.25, 0.3199990000000028, -0.47000100000000344, -0.5299989999999966, 60.970001, 59.970001, 6-14-2008
0.5, 0.6875,1.4799990000000065, -0.5299989999999966, 0.3799969999999959, 0.25, 59.970001, 60.599998, 6-15-2008
0.05555555555555555, 0.46511627906976744,1.0600009999999997, 0.25, -0.14999699999999905, -1.360000999999997, 60.599998, 59.09, 6-16-2008
0.375, 0.5192307692307693,1.5900000000000034, -1.360000999999997, 0.06999999999999318, -0.07999799999999624, 59.09, 59.080002, 6-17-2008
0.0, 0.5806451612903226,0.75, -0.07999799999999624, -0.5500030000000038, -1.3299979999999962, 59.080002, 57.200001, 6-18-2008
0.25, 0.5555555555555556,1.4799989999999994, -1.3299979999999962, -0.04999899999999968, 0.0, 57.200001, 57.150002, 6-19-2008
0.18181818181818182, 0.5925925925925926,0.8299980000000033, 0.0, -0.04000100000000373, 0.25999800000000306, 57.150002, 57.369999, 6-20-2008
0.25, 0.2608695652173913,1.279997999999999, 0.6799960000000027, 0.370002999999997, -2.2299989999999994, 57.509998, 55.650002, 7-1-2008
0.16666666666666666, 0.782608695652174,2.4100000000000037, -2.2299989999999994, 0.34999799999999937, -0.36999899999999997, 55.650002, 55.630001, 7-2-2008
0.14285714285714285, 0.6842105263157895,1.7199969999999993, -0.36999899999999997, 0.2700010000000006, -0.25, 55.630001, 55.650002, 7-3-2008
0.4, 0.7857142857142857,1.389999000000003, -0.25, -0.5100029999999975, 1.1599999999999966, 55.650002, 56.299999, 7-4-2008
0.0, 0.4375,1.4099999999999966, 1.1599999999999966, 0.1800009999999972, -1.8100019999999972, 56.299999, 54.669998, 7-5-2008
0.21428571428571427, 0.6451612903225806,2.1899980000000028, -1.8100019999999972, 0.620002999999997, 0.1399990000000031, 54.669998, 55.43, 7-6-2008
0.5, 0.75,1.869999, 0.1399990000000031, -0.5999979999999994, 0.5899959999999993, 55.43, 55.419998, 7-7-2008
0.125, 0.6153846153846154,1.8099970000000027, 0.5899959999999993, 1.1600040000000007, -1.4400029999999973, 55.419998, 55.139999, 7-8-2008
0.2857142857142857, 0.6666666666666666,1.6900029999999973, -1.4400029999999973, -0.5200000000000031, 1.1700019999999967, 55.139999, 55.790001, 7-9-2008
0.3333333333333333, 0.6875,2.0400009999999966, 1.1700019999999967, 0.25999800000000306, 1.0300030000000007, 55.790001, 57.080002, 7-10-2008
0.15384615384615385, 0.5,2.1799999999999997, 1.0300030000000007, 1.4199979999999996, 2.5400009999999966, 57.080002, 61.040001, 7-11-2008
0.42857142857142855, 0.5238095238095238,3.0499989999999997, 2.5400009999999966, -0.06999999999999318, -0.1900020000000069, 61.040001, 60.779999, 7-12-2008
0.3333333333333333, 0.75,2.259997999999996, -0.1900020000000069, 0.3700030000000041, -0.1800009999999972, 60.779999, 60.970001, 7-13-2008
0.5714285714285714, 0.48484848484848486,1.2700010000000006, -0.1800009999999972, -0.3500020000000035, 0.9900019999999969, 60.970001, 61.610001, 7-14-2008
0.3333333333333333, 0.5,1.380001, 0.9900019999999969, 0.20000000000000284, 0.36999899999999997, 61.610001, 62.18, 7-15-2008
0.18181818181818182, 0.56,1.4700009999999963, 0.36999899999999997, -0.10999999999999943, -1.0700000000000003, 62.18, 61.0, 7-16-2008
0.3333333333333333, 0.5806451612903226,1.390003, -1.0700000000000003, 0.33000200000000035, -0.8500020000000035, 61.0, 60.48, 7-17-2008
0.4, 0.5666666666666667,1.370003000000004, -0.8500020000000035, -0.07000000000000028, -0.8199999999999932, 60.48, 59.59, 7-18-2008
0.125, 0.5106382978723404,1.4599989999999963, -0.8199999999999932, 0.3600009999999969, 0.30999700000000274, 59.59, 60.259998, 7-19-2008
0.17647058823529413, 0.6818181818181818,2.050003000000004, 0.30999700000000274, 0.4600030000000004, 0.9499969999999962, 60.259998, 61.669998, 7-20-2008
0.6666666666666666, 0.6590909090909091,1.259998000000003, 0.9499969999999962, -0.3999979999999965, -0.630001, 61.669998, 60.639999, 7-21-2008
0.07142857142857142, 0.53125,1.9299999999999997, -1.6000029999999938, -0.07999800000000334, -0.75, 59.139999, 58.310001, 8-1-2008
0.6, 0.6,0.9799989999999994, -0.75, 0.39999800000000363, 1.7900009999999966, 58.310001, 60.5, 8-2-2008
0.2, 0.5714285714285714,1.860000999999997, 1.7900009999999966, -0.04999899999999968, 1.509998000000003, 60.5, 61.959999, 8-3-2008
0.2, 0.5348837209302325,1.6899980000000028, 1.509998000000003, -0.7000010000000003, 0.030002999999993563, 61.959999, 61.290001, 8-4-2008
0.375, 0.7142857142857143,2.0900000000000034, 0.030002999999993563, 0.20000100000000032, 1.8499980000000065, 61.290001, 63.34, 8-5-2008
0.13636363636363635, 0.5581395348837209,2.630001, 1.8499980000000065, -0.2299990000000065, 1.260002, 63.34, 64.370003, 8-6-2008
0.25, 0.6956521739130435,2.049999000000007, 1.260002, -0.3500059999999934, 0.2300029999999964, 64.370003, 64.25, 8-7-2008
0.1111111111111111, 0.6071428571428571,0.9500010000000003, 0.2300029999999964, -0.34999799999999937, -0.4700020000000009, 64.25, 63.43, 8-8-2008
0.16666666666666666, 0.6206896551724138,2.3100049999999968, -0.4700020000000009, -0.35999999999999943, 0.10999999999999943, 63.43, 63.18, 8-9-2008
0.3, 0.7605633802816901,1.0999979999999994, 0.10999999999999943, 0.04000100000000373, 1.3499989999999897, 63.18, 64.57, 8-10-2008
0.14285714285714285, 0.6071428571428571,2.3399999999999963, 1.3499989999999897, 0.40000100000000316, -0.7200009999999963, 64.57, 64.25, 8-11-2008
0.3, 0.5333333333333333,0.9200050000000033, -0.7200009999999963, -0.41999799999999965, -0.7400019999999969, 64.25, 63.09, 8-12-2008
0.25, 0.7058823529411765,1.5999979999999994, -0.7400019999999969, -0.3400000000000034, 0.6799999999999997, 63.09, 63.43, 8-13-2008
0.5, 0.5714285714285714,1.0600019999999972, 0.6799999999999997, -0.38000100000000003, -0.5599970000000027, 63.43, 62.490002, 8-14-2008
0.3333333333333333, 0.5555555555555556,1.2000000000000028, -0.5599970000000027, -0.010002000000000066, -0.029998999999996556, 62.490002, 62.450001, 8-15-2008
0.25, 0.6486486486486487,1.1799999999999997, -0.029998999999996556, -0.1800009999999972, -0.9299999999999997, 62.450001, 61.34, 8-16-2008
0.3333333333333333, 0.5517241379310345,1.720002000000001, -0.9299999999999997, -0.060001000000006854, 0.4600030000000004, 61.34, 61.740002, 8-17-2008
0.5333333333333333, 0.627906976744186,0.9400029999999973, 0.4600030000000004, -0.030002999999993563, 0.20999899999999627, 61.740002, 61.919998, 8-18-2008
0.2727272727272727, 0.6578947368421053,0.5800020000000004, 0.20999899999999627, 0.49000199999999694, 1.0999980000000065, 61.919998, 63.509998, 8-19-2008
0.5, 0.6511627906976745,1.4599989999999963, 1.0999980000000065, -0.21999700000000644, -0.4299999999999997, 63.509998, 62.860001, 8-20-2008
0.125, 0.7142857142857143,2.370002999999997, 1.2000050000000044, 1.0999979999999994, 0.3400039999999933, 65.290001, 66.730003, 9-1-2008
0.2777777777777778, 0.6428571428571429,1.739998, 0.3400039999999933, -0.3400039999999933, -0.8499979999999994, 66.730003, 65.540001, 9-2-2008
0.25, 0.7,2.31999900000001, -0.8499979999999994, -0.47000100000001055, 0.01999600000000612, 65.540001, 65.089996, 9-3-2008
0.42857142857142855, 0.6857142857142857,1.4499959999999987, 0.01999600000000612, 0.010002000000000066, 0.75, 65.089996, 65.849998, 9-4-2008
0.36363636363636365, 0.6,1.5899969999999968, 0.75, -0.23999700000000246, -1.0, 65.849998, 64.610001, 9-5-2008
0.2857142857142857, 0.5769230769230769,1.9000010000000032, -1.0, 0.5400010000000037, -0.2700049999999976, 64.610001, 64.879997, 9-6-2008
0.125, 0.6470588235294118,1.4399949999999961, -0.2700049999999976, -0.8099970000000098, 2.5999980000000136, 64.879997, 66.669998, 9-7-2008
0.0, 0.6666666666666666,3.119995000000003, 2.5999980000000136, -0.41999800000000675, 1.5199970000000036, 66.669998, 67.769997, 9-8-2008
0.14285714285714285, 0.4375,1.8899999999999864, 1.5199970000000036, -2.3099980000000073, 1.1699980000000068, 67.769997, 66.629997, 9-9-2008
0.1111111111111111, 0.65625,3.5900040000000075, 1.1699980000000068, -0.9699930000000023, 1.6899939999999987, 66.629997, 67.349998, 9-10-2008
0.5, 0.5833333333333334,3.5399929999999955, 1.6899939999999987, -1.3099969999999956, 0.45999899999999627, 67.349998, 66.5, 9-11-2008
0.07142857142857142, 0.4482758620689655,3.0000029999999995, 0.45999899999999627, 0.7699970000000036, 0.04000099999998952, 66.5, 67.309998, 9-12-2008
0.3, 0.6666666666666666,4.729995000000002, 0.04000099999998952, -0.09999899999999684, -0.23999799999999993, 67.309998, 66.970001, 9-13-2008
0.5714285714285714, 0.7222222222222222,3.1200019999999995, -0.23999799999999993, -0.6399990000000031, -1.5299989999999895, 66.970001, 64.800003, 9-14-2008
0.2, 0.5555555555555556,3.3300019999999932, -1.5299989999999895, 0.0, -2.5800020000000004, 64.800003, 62.220001, 9-15-2008
0.0, 0.6,3.389999000000003, -2.5800020000000004, -0.26000200000000007, -2.2199970000000064, 62.220001, 59.740002, 9-16-2008
0.08333333333333333, 0.5833333333333334,2.8400000000000034, -2.2199970000000064, 0.18999800000000278, 1.2299999999999969, 59.740002, 61.16, 9-17-2008
0.18181818181818182, 0.6,2.6900029999999973, 1.2299999999999969, -1.0200009999999935, 1.2999999999999972, 61.16, 61.439999, 9-18-2008
0.06666666666666667, 0.5,1.5, 1.2999999999999972, -0.8799980000000005, -2.909998999999999, 61.439999, 57.650002, 9-19-2008
0.125, 0.64,4.560001999999997, -2.909998999999999, 1.2099989999999963, -0.5400009999999966, 57.650002, 58.32, 9-20-2008
0.1111111111111111, 0.7,2.4199979999999996, 0.09999799999999937, -0.029998999999996556, -2.200000000000003, 57.919998, 55.689999, 10-1-2008
0.0, 0.6923076923076923,2.319999000000003, -2.200000000000003, 0.7100030000000004, -1.2900010000000037, 55.689999, 55.110001, 10-2-2008
0.3333333333333333, 0.6153846153846154,2.479999999999997, -1.2900010000000037, -0.5100029999999975, 0.07000000000000028, 55.110001, 54.669998, 10-3-2008
0.25, 0.6470588235294118,3.489998, 0.07000000000000028, 0.49000199999999694, -4.5, 54.669998, 50.66, 10-4-2008
0.1, 0.5925925925925926,5.110000999999997, -4.5, -0.9599989999999963, 1.2700000000000031, 50.66, 50.970001, 10-5-2008
0.0, 0.5116279069767442,4.5, 1.2700000000000031, 0.09999899999999684, -3.799999999999997, 50.970001, 47.27, 10-6-2008
0.35714285714285715, 0.6410256410256411,5.290001000000004, -3.799999999999997, -1.2999989999999997, 0.32999799999999624, 47.27, 46.299999, 10-7-2008
0.5, 0.8064516129032258,5.329998000000003, 0.32999799999999624, 1.4500010000000003, 3.240001999999997, 46.299999, 50.990002, 10-8-2008
0.16666666666666666, 0.45454545454545453,4.6100000000000065, 3.240001999999997, 1.3499980000000065, -2.0700000000000003, 50.990002, 50.27, 10-9-2008
0.4, 0.5,3.990001999999997, -2.0700000000000003, -0.7900000000000063, -4.989998, 50.27, 44.490002, 10-10-2008
0.42857142857142855, 0.8333333333333334,5.619999, -4.989998, -1.0300029999999936, 7.630001, 44.490002, 51.09, 10-11-2008
0.26666666666666666, 0.6578947368421053,7.630001, 7.630001, -3.680000000000007, 0.7599980000000031, 51.09, 48.169998, 10-12-2008
0.5, 0.6388888888888888,3.380001, 0.7599980000000031, 0.5600019999999972, 1.7700000000000031, 48.169998, 50.5, 10-13-2008
0.1111111111111111, 0.7241379310344828,2.490001999999997, 1.7700000000000031, 0.9799999999999969, -1.8200000000000003, 50.5, 49.66, 10-14-2008
0.25, 0.5555555555555556,2.6799999999999997, -1.8200000000000003, -0.2999989999999997, -2.6599999999999966, 49.66, 46.700001, 10-15-2008
0.0, 0.6451612903225806,4.299999999999997, -2.6599999999999966, 0.5, -0.850003000000001, 46.700001, 46.349998, 10-16-2008
0.0, 0.42857142857142855,4.719997999999997, -0.850003000000001, -2.9699969999999993, 1.7299999999999969, 46.349998, 45.110001, 10-17-2008
0.4444444444444444, 0.72,3.5, 1.7299999999999969, -0.5200009999999935, -0.7099990000000034, 45.110001, 43.880001, 10-18-2008
0.0625, 0.5,2.8899999999999935, -0.7099990000000034, 1.3299980000000033, 2.639998999999996, 43.880001, 47.849998, 10-19-2008
0.2857142857142857, 0.6538461538461539,4.880001, 2.639998999999996, -1.6699979999999996, 1.6899990000000003, 47.849998, 47.869999, 10-20-2008
0.125, 0.5625,3.599998999999997, 1.6899990000000003, 1.2200010000000034, 0.1100009999999969, 47.869999, 49.200001, 10-21-2008
0.5714285714285714, 0.6785714285714286,2.4399980000000028, 0.1100009999999969, -0.2999989999999997, 0.6799999999999997, 49.200001, 49.580002, 10-22-2008
0.0625, 0.4883720930232558,1.5600019999999972, 0.7899969999999996, 0.9700010000000034, 0.5200000000000031, 50.029999, 51.52, 11-1-2008
0.3333333333333333, 0.6470588235294118,1.519995999999999, 0.5200000000000031, -0.6399990000000031, -2.6599999999999966, 51.52, 48.220001, 11-2-2008
0.26666666666666666, 0.5806451612903226,3.3300020000000004, -2.6599999999999966, -0.49000100000000657, -3.0600019999999972, 48.220001, 44.669998, 11-3-2008
0.0, 0.8,4.069999000000003, -3.0600019999999972, 0.23000400000000099, 1.9099989999999991, 44.669998, 46.810001, 11-4-2008
0.1111111111111111, 0.5,2.340000999999994, 1.9099989999999991, 1.5099990000000005, -2.2700010000000006, 46.810001, 46.049999, 11-5-2008
0.2727272727272727, 0.5666666666666667,3.169998999999997, -2.2700010000000006, 0.5700000000000003, -0.75, 46.049999, 45.869999, 11-6-2008
0.2777777777777778, 0.5333333333333333,2.1099960000000024, -0.75, -0.869999, -0.8100009999999997, 45.869999, 44.189999, 11-7-2008
0.2857142857142857, 0.6,1.6799999999999997, -0.8100009999999997, 0.35999999999999943, 3.8300020000000004, 44.189999, 48.380001, 11-8-2008
0.3333333333333333, 0.8461538461538461,4.920002000000004, 3.8300020000000004, -0.5200000000000031, -2.479999999999997, 48.380001, 45.380001, 11-9-2008
0.3, 0.6428571428571429,2.7200010000000034, -2.479999999999997, -0.31000099999999975, -0.9599990000000034, 45.380001, 44.110001, 11-10-2008
0.2727272727272727, 0.7105263157894737,2.3200000000000003, -0.9599990000000034, -0.1100009999999969, 0.34999799999999937, 44.110001, 44.349998, 11-11-2008
0.2857142857142857, 0.6666666666666666,2.4600030000000004, 0.34999799999999937, -0.3699980000000025, -2.7900009999999966, 44.349998, 41.189999, 11-12-2008
0.3333333333333333, 0.5357142857142857,3.740001999999997, -2.7900009999999966, -0.4199989999999971, -3.7900000000000063, 41.189999, 36.98, 11-13-2008
0.2857142857142857, 0.6666666666666666,5.2399970000000025, -3.7900000000000063, 0.8899990000000031, 0.6500010000000032, 36.98, 38.52, 11-14-2008
0.3076923076923077, 0.5769230769230769,2.7900009999999966, 0.6500010000000032, 0.6300019999999975, 2.5399969999999996, 38.52, 41.689999, 11-15-2008
0.25, 0.5151515151515151,3.6199980000000025, 2.5399969999999996, 0.5899999999999963, 0.25, 41.689999, 42.529999, 11-16-2008
0.4444444444444444, 0.5,2.5899999999999963, 0.25, -0.5299989999999966, 1.889999000000003, 42.529999, 43.889999, 11-17-2008
0.25, 0.6842105263157895,2.75, 1.889999000000003, -0.2999989999999997, 0.32999799999999624, 43.889999, 43.919998, 11-18-2008
0.3, 0.5714285714285714,3.0400009999999966, -2.1599999999999966, 0.5699999999999932, 1.639999000000003, 39.59, 41.799999, 12-1-2008
0.0, 0.48,1.9499959999999987, 1.639999000000003, -0.7999989999999997, 2.0900000000000034, 41.799999, 43.09, 12-2-2008
0.16666666666666666, 0.6923076923076923,2.9399980000000028, 2.0900000000000034, -1.2799990000000037, 0.25999900000000054, 43.09, 42.07, 12-3-2008
0.07692307692307693, 0.5428571428571428,1.9799999999999969, 0.25999900000000054, -0.4799999999999969, 1.9099999999999966, 42.07, 43.5, 12-4-2008
0.25, 0.5,3.5999980000000065, 1.9099999999999966, 0.9299999999999997, 1.380001, 43.5, 45.810001, 12-5-2008
0.18181818181818182, 0.5,1.980004000000001, 1.380001, -0.4400019999999998, -0.879997000000003, 45.810001, 44.490002, 12-6-2008
0.125, 0.52,2.130001, -0.879997000000003, 0.5099980000000031, -0.25, 44.490002, 44.75, 12-7-2008
0.16666666666666666, 0.6470588235294118,1.7099990000000034, -0.25, -0.08000200000000035, -2.0599970000000027, 44.75, 42.610001, 12-8-2008
0.0, 0.6521739130434783,3.010002, -2.0599970000000027, -0.5200009999999935, 1.7999989999999997, 42.610001, 43.889999, 12-9-2008
0.23076923076923078, 0.46875,3.4100000000000037, 1.7999989999999997, 0.49000199999999694, -0.8300020000000004, 43.889999, 43.549999, 12-10-2008
0.14285714285714285, 0.46875,1.9199989999999971, -0.8300020000000004, 0.38000100000000003, 2.0200010000000006, 43.549999, 45.950001, 12-11-2008
0.0, 0.6666666666666666,2.4500010000000003, 2.0200010000000006, -0.5499989999999997, -0.9000020000000006, 45.950001, 44.5, 12-12-2008
0.2, 0.6176470588235294,1.9199979999999996, -0.9000020000000006, -0.04000099999999662, -1.759998000000003, 44.5, 42.700001, 12-13-2008
0.2857142857142857, 0.7727272727272727,2.229999999999997, -1.759998000000003, 0.2999989999999997, -1.5400009999999966, 42.700001, 41.459999, 12-14-2008
0.1875, 0.7037037037037037,2.680000999999997, -1.5400009999999966, 0.5800019999999932, -2.3300019999999932, 41.459999, 39.709999, 12-15-2008
0.0, 0.68,3.150001000000003, -2.3300019999999932, 0.630001, -1.4100000000000037, 39.709999, 38.93, 12-16-2008
0.08333333333333333, 0.6521739130434783,1.8399999999999963, -1.4100000000000037, 0.16999799999999965, -0.269995999999999, 38.93, 38.830002, 12-17-2008
0.2, 0.5675675675675675,0.639998999999996, -0.269995999999999, 0.41999799999999965, 0.1399990000000031, 38.830002, 39.389999, 12-18-2008
0.25, 0.7741935483870968,1.1799999999999997, 0.1399990000000031, 0.1800009999999972, -0.7399979999999999, 39.389999, 38.830002, 12-19-2008
0.125, 0.6578947368421053,1.2000010000000003, -0.7399979999999999, 0.1799960000000027, 1.4600030000000004, 38.830002, 40.470001, 12-20-2008
0.09090909090909091, 0.6774193548387096,1.7200010000000034, 1.4600030000000004, -0.1900020000000069, 2.150001000000003, 40.470001, 42.43, 12-21-2008
0.4, 0.6956521739130435,2.0299989999999966, 1.0999979999999994, -0.32999799999999624, 0.05999799999999311, 43.549999, 43.279999, 1-1-2009
0.3, 0.5517241379310345,1.3200000000000003, 0.05999799999999311, 0.42000200000000376, 1.3299979999999962, 43.279999, 45.029999, 1-2-2009
0.2, 0.7428571428571429,1.9300009999999972, 1.3299979999999962, -0.25999899999999343, -1.630001, 45.029999, 43.139999, 1-3-2009
0.18181818181818182, 0.6388888888888888,1.8300010000000029, -1.630001, -0.20000000000000284, 1.25, 43.139999, 44.189999, 1-4-2009
0.4, 0.6875,1.7299999999999969, 1.25, 0.25, -1.1299980000000005, 44.189999, 43.310001, 1-5-2009
0.3, 0.5588235294117647,1.7200010000000034, -1.1299980000000005, -0.20000000000000284, -0.5299989999999966, 43.310001, 42.580002, 1-6-2009
0.2, 0.782608695652174,1.0700000000000003, -0.5299989999999966, -0.2700010000000006, -0.6099999999999994, 42.580002, 41.700001, 1-7-2009
0.15384615384615385, 0.47368421052631576,1.1400000000000006, -0.6099999999999994, -0.869999, -0.5600019999999972, 41.700001, 40.27, 1-8-2009
0.08333333333333333, 0.6410256410256411,1.4099999999999966, -0.5600019999999972, -0.06000099999999975, 1.2000009999999932, 40.27, 41.41, 1-9-2009
0.75, 0.95,2.5800020000000004, 1.2000009999999932, -1.7700009999999935, 1.7900009999999966, 41.41, 41.43, 1-10-2009
0.07692307692307693, 0.45714285714285713,2.3200000000000003, 1.7900009999999966, -0.34999799999999937, -1.480004000000001, 41.43, 39.599998, 1-11-2009
0.2, 0.5925925925925926,2.0700000000000003, -1.480004000000001, 0.7200020000000009, 0.1399990000000031, 39.599998, 40.459999, 1-12-2009
0.125, 0.6774193548387096,1.8199990000000028, 0.1399990000000031, -1.2099990000000034, 0.04000099999999662, 40.459999, 39.290001, 1-13-2009
0.38461538461538464, 0.4857142857142857,1.239998, 0.04000099999999662, -0.7800029999999936, 0.7000010000000003, 39.290001, 39.209999, 1-14-2009
0.2222222222222222, 0.5227272727272727,1.649996999999999, 0.7000010000000003, 0.2999989999999997, -0.6600000000000037, 39.209999, 38.849998, 1-15-2009
0.42857142857142855, 0.5333333333333333,1.860000999999997, -0.6600000000000037, 0.3100019999999972, -0.029998999999996556, 38.849998, 39.130001, 1-16-2009
0.125, 0.5652173913043478,1.4300009999999972, -0.029998999999996556, 0.8600009999999969, 0.9199979999999996, 39.130001, 40.91, 1-17-2009
0.1111111111111111, 0.6666666666666666,1.619999, 0.9199979999999996, -0.4799999999999969, -1.0499989999999997, 40.91, 39.380001, 1-18-2009
0.2, 0.6363636363636364,1.5499989999999997, -1.0499989999999997, -0.04999899999999968, -1.75, 39.380001, 37.580002, 1-19-2009
0.07692307692307693, 0.6071428571428571,1.5399969999999996, 0.3200039999999973, 0.18999800000000278, -0.6799999999999997, 37.490002, 37.0, 2-1-2009
0.5714285714285714, 0.7407407407407407,1.2099989999999963, -0.6799999999999997, 0.31000099999999975, -0.8399999999999963, 37.0, 36.470001, 2-2-2009
0.42857142857142855, 0.5833333333333334,0.9399990000000003, -0.8399999999999963, -0.060001000000006854, 1.25, 36.470001, 37.66, 2-3-2009
0.0, 0.625,1.9399989999999931, 1.25, -0.020000999999993496, 1.4799999999999969, 37.66, 39.119999, 2-4-2009
0.2222222222222222, 0.7272727272727273,1.6800009999999972, 1.4799999999999969, -0.07000000000000028, 0.20999900000000338, 39.119999, 39.259998, 2-5-2009
0.5, 0.6521739130434783,1.470002000000001, 0.20999900000000338, -0.2899969999999996, -1.5800020000000004, 39.259998, 37.389999, 2-6-2009
0.09090909090909091, 0.76,2.5800020000000004, -1.5800020000000004, 0.29999999999999716, -0.32999800000000334, 37.389999, 37.360001, 2-7-2009
0.09090909090909091, 0.41935483870967744,1.0800020000000004, -0.32999800000000334, -0.3600009999999969, -0.08000200000000035, 37.360001, 36.919998, 2-8-2009
0.18181818181818182, 0.42857142857142855,1.4700010000000034, -0.08000200000000035, -0.20999899999999627, -0.5, 36.919998, 36.209999, 2-9-2009
0.16666666666666666, 0.6176470588235294,2.860000999999997, -0.5, -0.9300000000000068, -0.8999979999999965, 36.209999, 34.380001, 2-10-2009
0.3, 0.6153846153846154,1.5999989999999968, -0.8999979999999965, -0.1100009999999969, -0.17999999999999972, 34.380001, 34.09, 2-11-2009
0.29411764705882354, 0.5555555555555556,1.25, -0.17999999999999972, 0.7099989999999963, -1.369999, 34.09, 33.43, 2-12-2009
0.0, 0.5909090909090909,1.8499980000000065, -1.369999, -0.35999999999999943, -0.40000200000000063, 33.43, 32.669998, 2-13-2009
0.5454545454545454, 0.65,2.190000999999995, -0.40000200000000063, 0.5800020000000004, -2.1700000000000017, 32.669998, 31.08, 2-14-2009
0.14285714285714285, 0.46875,2.209999, -2.1700000000000017, 0.22999900000000295, 1.1700009999999956, 31.08, 32.48, 2-15-2009
0.05, 0.4375,1.9100000000000037, 1.1700009999999956, 0.11000000000000654, -0.610000000000003, 32.48, 31.98, 2-16-2009
0.0, 0.6,1.139999999999997, -0.610000000000003, 0.06999899999999926, -0.6099980000000009, 31.98, 31.440001, 2-17-2009
0.25, 0.47368421052631576,1.5699999999999967, -0.6099980000000009, -0.5900009999999973, 0.20999899999999982, 31.440001, 31.059999, 2-18-2009
0.2608695652173913, 0.6163793103448276,1.0400010000000002, -0.6399989999999995, 0.5, -0.7400020000000005, 30.040001, 29.799999, 3-1-2009
0.14423076923076922, 0.5204460966542751,1.1399989999999995, -0.7400020000000005, 0.44000099999999875, 0.6800000000000033, 29.799999, 30.92, 3-2-2009
0.25, 0.6345177664974619,1.3600010000000005, 0.6800000000000033, -0.9200000000000017, -1.5199999999999996, 30.92, 28.48, 3-3-2009
0.25301204819277107, 0.588477366255144,2.0100000000000016, -1.5199999999999996, 0.23999900000000096, 0.7000010000000003, 28.48, 29.42, 3-4-2009
0.3119266055045872, 0.6487341772151899,1.6000000000000014, 0.7000010000000003, -0.22999900000000295, 0.30999900000000125, 29.42, 29.5, 3-5-2009
0.35185185185185186, 0.6523605150214592,0.8999990000000011, 0.30999900000000125, 0.3500000000000014, 2.839998999999999, 29.5, 32.689999, 3-6-2009
0.32786885245901637, 0.5961538461538461,2.870001000000002, 2.839998999999999, 0.2800020000000032, -0.060001000000006854, 32.689999, 32.91, 3-7-2009
0.4, 0.7642857142857142,0.7700000000000031, -0.060001000000006854, -0.06999999999999318, 1.5, 32.91, 34.34, 3-8-2009
0.2631578947368421, 0.7041420118343196,1.9700009999999963, 1.5, -1.2700000000000031, -0.07000000000000028, 34.34, 33.0, 3-9-2009
0.25316455696202533, 0.6650717703349283,0.7399979999999999, -0.07000000000000028, 0.3600009999999969, -0.42000199999999666, 33.0, 32.939999, 3-10-2009
0.23853211009174313, 0.6439169139465876,0.9399990000000003, -0.42000199999999666, -0.009999000000000535, 1.0400010000000037, 32.939999, 33.970001, 3-11-2009
0.29850746268656714, 0.6197183098591549,1.5600010000000069, 1.0400010000000037, 0.1100009999999969, 0.9099999999999966, 33.970001, 34.990002, 3-12-2009
0.3090909090909091, 0.648936170212766,1.9900009999999995, 0.9099999999999966, 0.3400000000000034, -0.23000400000000099, 34.990002, 35.099998, 3-13-2009
0.29850746268656714, 0.672566371681416,0.8099970000000027, -0.23000400000000099, 0.060001999999997224, -0.4500009999999932, 35.099998, 34.709999, 3-14-2009
0.4482758620689655, 0.6842105263157895,0.9299960000000027, -0.4500009999999932, 0.7200009999999963, 1.5700000000000003, 34.709999, 37.0, 3-15-2009
0.28888888888888886, 0.6987951807228916,1.9700010000000034, 1.5700000000000003, -0.4099999999999966, 0.0, 37.0, 36.59, 3-16-2009
0.5434782608695652, 0.7195121951219512,1.0299989999999966, 0.0, 0.0, 0.2900009999999966, 36.59, 36.880001, 3-17-2009
0.3076923076923077, 0.68125,2.400001000000003, 0.2900009999999966, 0.3400000000000034, 1.489998, 36.880001, 38.709999, 3-18-2009
0.3384615384615385, 0.6536585365853659,1.8599999999999994, 1.489998, -0.9599990000000034, -0.9500010000000003, 38.709999, 36.799999, 3-19-2009
0.21052631578947367, 0.7081545064377682,2.25, -0.9500010000000003, -0.45999899999999627, 0.5299989999999966, 36.799999, 36.869999, 3-20-2009
0.16216216216216217, 0.6244131455399061,1.609997, 0.5299989999999966, 0.4299999999999997, -0.39999699999999905, 36.869999, 36.900002, 3-21-2009
0.2857142857142857, 0.6428571428571429,4.020000000000003, 3.030002000000003, 0.8299979999999962, 1.75, 39.470001, 42.049999, 4-1-2009
0.2857142857142857, 0.7575757575757576,2.600003000000001, 1.75, -0.9299999999999997, 3.440002, 42.049999, 44.560001, 4-2-2009
0.1111111111111111, 0.4090909090909091,3.5400009999999966, 3.440002, -0.38000100000000003, 0.09000000000000341, 44.560001, 44.27, 4-3-2009
0.07692307692307693, 0.4,0.7700000000000031, 0.09000000000000341, -0.7799980000000062, -0.6900029999999973, 44.27, 42.799999, 4-4-2009
0.16666666666666666, 0.6551724137931034,1.8300020000000004, -0.6900029999999973, 0.17000200000000376, -0.10000200000000348, 42.799999, 42.869999, 4-5-2009
0.0, 0.631578947368421,1.2799989999999966, -0.10000200000000348, 0.9000010000000032, 1.2000010000000003, 42.869999, 44.970001, 4-6-2009
0.23529411764705882, 0.6964285714285714,1.5800010000000029, 1.2000010000000003, -0.3199990000000028, 0.4799989999999994, 44.970001, 45.130001, 4-7-2009
0.15384615384615385, 0.6578947368421053,2.0, 0.4799989999999994, -0.4099999999999966, -0.5900000000000034, 45.130001, 44.130001, 4-8-2009
0.26666666666666666, 0.7105263157894737,1.630001, -0.5900000000000034, -0.08000200000000035, 0.39000000000000057, 44.130001, 44.439999, 4-9-2009
0.3333333333333333, 0.4782608695652174,0.7799990000000037, 0.39000000000000057, 0.2299989999999994, 1.4400029999999973, 44.439999, 46.110001, 4-10-2009
0.5714285714285714, 0.7307692307692307,2.239998, 1.4400029999999973, 0.029998000000006186, -0.8499980000000065, 46.110001, 45.290001, 4-11-2009
0.36363636363636365, 0.64,2.0, -0.8499980000000065, 0.04000100000000373, -2.140003, 45.290001, 43.189999, 4-12-2009
0.29411764705882354, 0.7096774193548387,2.730004000000001, -2.140003, -0.39000000000000057, 0.8400000000000034, 43.189999, 43.639999, 4-13-2009
0.16666666666666666, 0.7142857142857143,1.4799999999999969, 0.8400000000000034, -0.8400000000000034, 1.2800030000000007, 43.639999, 44.080002, 4-14-2009
0.07142857142857142, 0.5384615384615384,2.479999999999997, 1.2800030000000007, 0.019995999999999015, -0.649996999999999, 44.080002, 43.450001, 4-15-2009
0.2857142857142857, 0.6896551724137931,2.139999000000003, -0.649996999999999, -0.010002000000000066, 2.020000000000003, 43.450001, 45.459999, 4-16-2009
0.08333333333333333, 0.41379310344827586,2.3399999999999963, 2.020000000000003, -0.6499980000000036, -0.7800020000000032, 45.459999, 44.029999, 4-17-2009
0.5, 0.7428571428571429,1.4200020000000038, -0.7800020000000032, -0.5099989999999934, -0.2799980000000062, 44.029999, 43.240002, 4-18-2009
0.16666666666666666, 0.6774193548387096,0.8699980000000025, -0.2799980000000062, 0.5299980000000062, 0.34999899999999684, 43.240002, 44.119999, 4-19-2009
0.4444444444444444, 0.6363636363636364,0.8500029999999938, 0.34999899999999684, 0.5200000000000031, -0.5900000000000034, 44.119999, 44.049999, 4-20-2009
0.2727272727272727, 0.5862068965517241,0.9799999999999969, 0.04000000000000625, 0.2200019999999938, 2.259998000000003, 44.02, 46.5, 5-1-2009
0.18181818181818182, 0.5483870967741935,2.610000999999997, 2.259998000000003, 0.20999900000000338, -0.9399990000000003, 46.5, 45.77, 5-2-2009
0.42857142857142855, 0.8214285714285714,1.5700000000000003, -0.9399990000000003, 0.45999999999999375, -0.29999999999999716, 45.77, 45.93, 5-3-2009
0.16666666666666666, 0.6153846153846154,1.2099990000000034, -0.29999999999999716, -0.17000199999999666, -2.029998000000006, 45.93, 43.73, 5-4-2009
0.5, 0.7894736842105263,3.6399999999999935, -2.029998000000006, 0.3500020000000035, 0.6399990000000031, 43.73, 44.720001, 5-5-2009
0.2, 0.6410256410256411,1.25, 0.6399990000000031, -0.6200030000000041, -0.5599970000000027, 44.720001, 43.540001, 5-6-2009
0.13333333333333333, 0.6666666666666666,1.2299989999999994, -0.5599970000000027, 0.34999800000000647, -0.20000000000000284, 43.540001, 43.689999, 5-7-2009
0.3333333333333333, 0.65625,1.2399970000000025, -0.20000000000000284, -0.7299999999999969, -1.0700000000000003, 43.689999, 41.889999, 5-8-2009
0.1111111111111111, 0.56,1.2299999999999969, -1.0700000000000003, -0.15999900000000622, 0.6799999999999997, 41.889999, 42.41, 5-9-2009
0.6666666666666666, 0.7777777777777778,1.2899969999999996, 0.6799999999999997, 0.22000100000000344, -0.4299999999999997, 42.41, 42.200001, 5-10-2009
0.25, 0.5333333333333333,1.3599999999999994, -0.4299999999999997, 0.4299999999999997, 1.4500010000000003, 42.200001, 44.080002, 5-11-2009
0.23076923076923078, 0.6944444444444444,1.5799980000000033, 1.4500010000000003, -0.08000200000000035, 0.6599999999999966, 44.080002, 44.66, 5-12-2009
0.0, 0.5384615384615384,1.2900009999999966, 0.6599999999999966, 0.2999990000000068, 0.5400009999999966, 44.66, 45.5, 5-13-2009
0.3, 0.625,2.0800019999999932, 0.5400009999999966, -0.40000200000000063, -1.0699990000000028, 45.5, 44.029999, 5-14-2009
0.1111111111111111, 0.5925925925925926,1.519995999999999, -1.0699990000000028, 0.17000200000000376, 0.4299999999999997, 44.029999, 44.630001, 5-15-2009
0.45454545454545453, 0.8,1.1899980000000028, 0.4299999999999997, -0.19000199999999978, 0.5800010000000029, 44.630001, 45.02, 5-16-2009
0.42857142857142855, 0.7,1.4299999999999997, 0.5800010000000029, -0.020000000000003126, -1.1899990000000003, 45.02, 43.810001, 5-17-2009
0.25, 0.6785714285714286,1.5999989999999968, -1.1899990000000003, 0.5299990000000037, -0.25, 43.810001, 44.09, 5-18-2009
0.3333333333333333, 0.7142857142857143,1.5300020000000032, -0.25, 0.36999899999999997, 0.010002000000000066, 44.09, 44.470001, 5-19-2009
0.23076923076923078, 0.625,1.4599989999999963, 0.870002999999997, -0.2000009999999932, -0.20999900000000338, 46.040001, 45.630001, 6-1-2009
0.07692307692307693, 0.4444444444444444,0.5299989999999966, -0.20999900000000338, -0.38000100000000003, -0.6500020000000006, 45.630001, 44.599998, 6-2-2009
0.6363636363636364, 0.782608695652174,1.490002000000004, -0.6500020000000006, 0.1600000000000037, 0.24000199999999694, 44.599998, 45.0, 6-3-2009
0.5, 0.7777777777777778,0.9700010000000034, 0.24000199999999694, 0.8600009999999969, -0.8200000000000003, 45.0, 45.040001, 6-4-2009
0.3333333333333333, 0.631578947368421,1.4500010000000003, -0.8200000000000003, -0.17999999999999972, -0.5700000000000003, 45.040001, 44.290001, 6-5-2009
0.4, 0.5925925925925926,1.5999979999999994, -0.5700000000000003, 0.21999700000000644, 1.010002, 44.290001, 45.52, 6-6-2009
0.14285714285714285, 0.6774193548387096,1.5400010000000037, 1.010002, 0.34999899999999684, -0.619999, 45.52, 45.25, 6-7-2009
0.375, 0.7586206896551724,1.6600000000000037, -0.619999, 0.1100009999999969, 0.09000000000000341, 45.25, 45.450001, 6-8-2009
0.4, 0.78125,0.7600020000000001, 0.09000000000000341, 0.30999700000000274, -0.629997000000003, 45.450001, 45.130001, 6-9-2009
0.14285714285714285, 0.7297297297297297,0.879997000000003, -0.629997000000003, -0.19000199999999978, -0.9599990000000034, 45.130001, 43.98, 6-10-2009
0.125, 0.7096774193548387,1.239998, -0.9599990000000034, 0.36000000000000654, -1.2700000000000031, 43.98, 43.07, 6-11-2009
0.375, 0.6,1.3400000000000034, -1.2700000000000031, -0.14000000000000057, 0.3100019999999972, 43.07, 43.240002, 6-12-2009
0.07142857142857142, 0.5238095238095238,1.2399970000000025, 0.3100019999999972, 0.05999700000000274, -0.35999999999999943, 43.240002, 42.939999, 6-13-2009
0.14285714285714285, 0.6538461538461539,1.0700000000000003, -0.35999999999999943, 0.2299989999999994, -0.34999799999999937, 42.939999, 42.82, 6-14-2009
0.2857142857142857, 0.5882352941176471,0.7900009999999966, -0.34999799999999937, -0.5299990000000037, -0.630001, 42.82, 41.66, 6-15-2009
0.14285714285714285, 0.6176470588235294,0.879997000000003, -0.630001, 0.02999900000000366, -0.1800009999999972, 41.66, 41.509998, 6-16-2009
0.18518518518518517, 0.6511627906976745,0.6500019999999935, -0.1800009999999972, 0.4600030000000004, 1.0, 41.509998, 42.970001, 6-17-2009
0.0, 0.6206896551724138,1.6500020000000006, 1.0, -0.1399990000000031, 1.009998000000003, 42.970001, 43.84, 6-18-2009
0.4, 0.4782608695652174,1.360000999999997, 1.009998000000003, -0.09999800000000647, -0.17000199999999666, 43.84, 43.57, 6-19-2009
0.0, 0.5862068965517241,0.6200030000000041, -0.17000199999999666, 0.0, 0.2900009999999966, 43.57, 43.860001, 6-20-2009
0.26666666666666666, 0.6486486486486487,1.0499989999999997, 0.2900009999999966, 0.09000000000000341, -0.04999899999999968, 43.860001, 43.900002, 6-21-2009
0.5, 0.9117647058823529,0.8199990000000028, -0.08000200000000035, -0.7199979999999968, -0.9099989999999991, 43.779999, 42.150002, 7-1-2009
0.36363636363636365, 0.5853658536585366,1.629996999999996, -0.9099989999999991, -0.15000200000000063, 1.0200000000000031, 42.150002, 43.02, 7-2-2009
0.2, 0.5294117647058824,1.5399969999999996, 1.0200000000000031, 0.029998999999996556, -1.4299999999999997, 43.02, 41.619999, 7-3-2009
0.3333333333333333, 0.6666666666666666,1.4799989999999994, -1.4299999999999997, 0.09000000000000341, 0.1100009999999969, 41.619999, 41.82, 7-4-2009
0.1, 0.5757575757575758,0.7100030000000004, 0.1100009999999969, 0.3199990000000028, -0.029998000000006186, 41.82, 42.110001, 7-5-2009
0.4, 0.75,0.75, -0.029998000000006186, -0.3400009999999938, 0.16999899999999712, 42.110001, 41.939999, 7-6-2009
0.0, 0.625,1.0400009999999966, 0.16999899999999712, -0.05999800000000022, 1.6899990000000003, 41.939999, 43.57, 7-7-2009
0.2727272727272727, 0.6363636363636364,2.0899999999999963, 1.6899990000000003, -0.009999000000000535, 0.5700000000000003, 43.57, 44.130001, 7-8-2009
0.0625, 0.4634146341463415,1.0799979999999962, 0.5700000000000003, 0.6599999999999966, 1.3099970000000027, 44.130001, 46.099998, 7-9-2009
0.375, 0.6071428571428571,1.3400009999999938, 1.3099970000000027, 1.0500040000000013, 2.1199980000000025, 46.099998, 49.27, 7-10-2009
0.3333333333333333, 0.6,2.4000020000000006, 2.1199980000000025, -0.42000200000000376, 0.7100030000000004, 49.27, 49.560001, 7-11-2009
0.23076923076923078, 0.4666666666666667,1.3400010000000009, 0.7100030000000004, 0.36999899999999997, 0.5200010000000006, 49.560001, 50.450001, 7-12-2009
0.6, 0.7142857142857143,1.129997000000003, 0.5200010000000006, 0.4799989999999994, -0.5, 50.450001, 50.43, 7-13-2009
0.47058823529411764, 0.6176470588235294,2.5300030000000007, -0.5, -0.4099999999999966, 0.7299999999999969, 50.43, 50.75, 7-14-2009
0.3, 0.6666666666666666,1.3300020000000004, 0.7299999999999969, 0.0, 1.7200010000000034, 50.75, 52.470001, 7-15-2009
0.5294117647058824, 0.7254901960784313,2.049999999999997, 1.7200010000000034, -0.3400000000000034, 0.4299999999999997, 52.470001, 52.560001, 7-16-2009
0.4166666666666667, 0.6470588235294118,1.1200019999999995, 0.4299999999999997, -0.10999999999999943, 0.35999999999999943, 52.560001, 52.810001, 7-17-2009
0.2, 0.6333333333333333,1.0799979999999962, 0.35999999999999943, -0.4600030000000004, 0.20000100000000032, 52.810001, 52.549999, 7-18-2009
0.18181818181818182, 0.5333333333333333,0.9400029999999973, 0.20000100000000032, -0.5400009999999966, -0.12999700000000303, 52.549999, 51.880001, 7-19-2009
0.125, 0.4827586206896552,1.2000010000000003, -0.12999700000000303, 0.5499989999999997, 1.9799999999999969, 51.880001, 54.41, 7-20-2009
0.2, 0.5625,2.519995999999999, 1.9799999999999969, -0.20999899999999627, 0.7999989999999997, 54.41, 55.0, 7-21-2009
0.25, 0.59375,1.5700000000000003, 1.220002000000001, -0.4799999999999969, 0.7000009999999932, 56.82, 57.040001, 8-1-2009
0.2857142857142857, 0.6896551724137931,0.9000020000000006, 0.7000009999999932, 0.2299990000000065, -0.15999900000000622, 57.040001, 57.110001, 8-2-2009
0.0, 0.56,1.3300020000000004, -0.15999900000000622, -0.04999999999999716, -0.9000010000000032, 57.110001, 56.16, 8-3-2009
0.3333333333333333, 0.4375,1.2799980000000062, -0.9000010000000032, 0.4799990000000065, -0.4399980000000028, 56.16, 56.200001, 8-4-2009
0.13333333333333333, 0.52,1.0799980000000033, -0.4399980000000028, -0.15000200000000063, -0.9599989999999963, 56.200001, 55.09, 8-5-2009
0.2222222222222222, 0.5714285714285714,1.2199969999999993, -0.9599989999999963, -0.3200000000000003, 0.3800019999999975, 55.09, 55.150002, 8-6-2009
0.2, 0.65,0.880001, 0.3800019999999975, -0.25, 0.6299969999999959, 55.150002, 55.529999, 8-7-2009
0.42857142857142855, 0.6206896551724138,1.119999, 0.6299969999999959, 0.030002000000003193, 0.3400010000000009, 55.529999, 55.900002, 8-8-2009
0.16666666666666666, 0.7307692307692307,1.0299989999999966, 0.3400010000000009, -0.33000200000000035, -0.9899979999999999, 55.900002, 54.580002, 8-9-2009
0.42857142857142855, 0.6129032258064516,1.8800019999999975, -0.9899979999999999, -0.40000200000000063, -1.2099989999999963, 54.580002, 52.970001, 8-10-2009
0.2727272727272727, 0.64,1.4299999999999997, -1.2099989999999963, 0.06999999999999318, -0.0899999999999963, 52.970001, 52.950001, 8-11-2009
0.5, 0.6486486486486487,1.0899999999999963, -0.0899999999999963, -0.5700000000000003, 1.0499989999999997, 52.950001, 53.43, 8-12-2009
0.2222222222222222, 0.627906976744186,1.5700000000000003, 1.0499989999999997, 0.0, -0.2799979999999991, 53.43, 53.150002, 8-13-2009
0.5, 0.85,1.0799979999999962, -0.2799979999999991, 0.4799989999999994, 0.9199979999999996, 53.150002, 54.549999, 8-14-2009
0.0, 0.6451612903225806,1.3900000000000006, 0.9199979999999996, 0.33000200000000035, -0.7299989999999994, 54.549999, 54.150002, 8-15-2009
0.25, 0.52,1.2200019999999938, -0.7299989999999994, 0.44999599999999873, -0.30999700000000274, 54.150002, 54.290001, 8-16-2009
0.6666666666666666, 0.7254901960784313,1.2700000000000031, -0.30999700000000274, -0.13000100000000003, -0.41999799999999965, 54.290001, 53.740002, 8-17-2009
0.4, 0.8076923076923077,1.25, -0.41999799999999965, -0.08000200000000035, 1.5299990000000037, 53.740002, 55.189999, 8-18-2009
0.2, 0.5714285714285714,2.349998999999997, 1.5299990000000037, 0.35000199999999637, 0.39999800000000363, 55.189999, 55.939999, 8-19-2009
0.16666666666666666, 0.7586206896551724,1.519995999999999, 0.39999800000000363, -0.6999970000000033, 0.1600000000000037, 55.939999, 55.400002, 8-20-2009
0.16666666666666666, 0.6153846153846154,1.9300009999999972, -0.9899979999999999, -0.26000200000000007, 0.10999999999999943, 54.080002, 53.93, 9-1-2009
0.1, 0.6451612903225806,0.8799980000000005, 0.10999999999999943, 0.36999899999999997, -0.18999800000000278, 53.93, 54.110001, 9-2-2009
0.375, 0.5384615384615384,0.8299979999999962, -0.18999800000000278, -0.04999999999999716, 0.8299980000000033, 54.110001, 54.889999, 9-3-2009
0.0, 0.6363636363636364,1.4199979999999996, 0.8299980000000033, 0.25, 0.25, 54.889999, 55.389999, 9-4-2009
0.3333333333333333, 0.7692307692307693,0.8399999999999963, 0.25, -0.09999800000000647, 1.1699980000000068, 55.389999, 56.459999, 9-5-2009
0.18181818181818182, 0.6,1.7999989999999997, 1.1699980000000068, -0.05999700000000274, 0.5899999999999963, 56.459999, 56.990002, 9-6-2009
0.11764705882352941, 0.5869565217391305,1.1700020000000038, 0.5899999999999963, 0.2299990000000065, 0.07999799999999624, 56.990002, 57.299999, 9-7-2009
0.3333333333333333, 0.42857142857142855,0.9300009999999972, 0.07999799999999624, -0.35999999999999943, 0.9700009999999963, 57.299999, 57.91, 9-8-2009
0.25, 0.5555555555555556,1.4300009999999972, 0.9700009999999963, 0.00999800000000306, 1.490001999999997, 57.91, 59.41, 9-9-2009
0.42857142857142855, 0.7777777777777778,2.019995999999999, 1.490001999999997, 0.6399990000000031, -0.1599999999999966, 59.41, 59.889999, 9-10-2009
0.3888888888888889, 0.6440677966101694,0.7800030000000007, -0.1599999999999966, 0.060001999999997224, -0.6700020000000038, 59.889999, 59.279999, 9-11-2009
0.25, 0.6111111111111112,1.369999, -0.6700020000000038, 0.13000100000000003, 0.24000200000000405, 59.279999, 59.650002, 9-12-2009
0.18181818181818182, 0.5,0.6799960000000027, 0.24000200000000405, -0.8300020000000004, 0.869999, 59.650002, 59.689999, 9-13-2009
0.625, 0.7916666666666666,1.5799980000000033, 0.869999, 0.7400009999999995, -0.31000099999999975, 59.689999, 60.119999, 9-14-2009
0.1111111111111111, 0.7096774193548387,0.5900010000000009, -0.31000099999999975, 0.26000200000000007, -1.3300020000000004, 60.119999, 59.049999, 9-15-2009
0.3333333333333333, 0.6060606060606061,1.380001, -1.3300020000000004, 0.28000300000000067, -0.8100019999999972, 59.049999, 58.52, 9-16-2009
0.25, 0.625,1.4600030000000004, -0.8100019999999972, -0.42000200000000376, -0.44999599999999873, 58.52, 57.650002, 9-17-2009
0.42857142857142855, 0.7391304347826086,1.1899980000000028, -0.44999599999999873, 0.39999699999999905, 0.7099990000000034, 57.650002, 58.759998, 9-18-2009
0.3125, 0.6666666666666666,1.4399990000000003, 0.7099990000000034, -0.00999800000000306, -0.00999800000000306, 58.759998, 58.740002, 9-19-2009
0.625, 0.8260869565217391,0.8899990000000031, -0.00999800000000306, 0.039996999999999616, -0.5699999999999932, 58.740002, 58.209999, 9-20-2009
0.2727272727272727, 0.5925925925925926,1.8499980000000065, -1.6400000000000006, -0.6200019999999995, 0.3199990000000028, 56.560001, 56.259998, 10-1-2009
0.16666666666666666, 0.6785714285714286,1.6599999999999966, 0.3199990000000028, 0.26000200000000007, 1.0200009999999935, 56.259998, 57.540001, 10-2-2009
0.125, 0.6571428571428571,1.4399980000000028, 1.0200009999999935, 0.48999799999999993, 0.0, 57.540001, 58.029999, 10-3-2009
0.25, 0.5806451612903226,1.8100009999999997, 0.0, 0.0, -0.1599999999999966, 58.029999, 57.869999, 10-4-2009
0.21428571428571427, 0.6363636363636364,0.869999, -0.1599999999999966, 0.6000020000000035, 0.75, 57.869999, 59.220001, 10-5-2009
0.2, 0.6923076923076923,1.0799980000000033, 0.75, 0.06999999999999318, 0.4599990000000034, 59.220001, 59.75, 10-6-2009
0.07692307692307693, 0.4827586206896552,0.8400000000000034, 0.4599990000000034, -0.00999800000000306, 0.36999899999999997, 59.75, 60.110001, 10-7-2009
0.1111111111111111, 0.4642857142857143,0.7900009999999966, 0.36999899999999997, -0.3100019999999972, 0.8400000000000034, 60.110001, 60.639999, 10-8-2009
0.4, 0.7083333333333334,0.9899979999999999, 0.8400000000000034, 0.4700019999999938, 0.41999799999999965, 60.639999, 61.529999, 10-9-2009
0.4444444444444444, 0.6666666666666666,0.7899969999999996, 0.41999799999999965, -1.6800009999999972, 2.230004000000001, 61.529999, 62.080002, 10-10-2009
0.3333333333333333, 0.5652173913043478,2.3800019999999975, 2.230004000000001, -0.19000299999999726, -0.5900000000000034, 62.080002, 61.299999, 10-11-2009
0.2, 0.4782608695652174,1.1599990000000062, -0.5900000000000034, -0.13000100000000003, 0.8000030000000038, 61.299999, 61.970001, 10-12-2009
0.4, 0.76,1.140003, 0.8000030000000038, -0.050003000000003794, -0.7099989999999963, 61.970001, 61.209999, 10-13-2009
0.3333333333333333, 0.5142857142857142,1.2999989999999997, -0.7099989999999963, 0.0, -1.5400010000000037, 61.209999, 59.669998, 10-14-2009
0.3, 0.5333333333333333,2.3299980000000033, -1.5400010000000037, 0.0, 1.010002, 59.669998, 60.68, 10-15-2009
0.3, 0.7083333333333334,1.9099999999999966, 1.010002, 0.09000000000000341, -1.4299999999999997, 60.68, 59.34, 10-16-2009
0.6, 0.8,1.9500010000000003, -1.4299999999999997, 0.0, -1.130001, 59.34, 58.209999, 10-17-2009
0.5, 0.7333333333333333,2.319999000000003, -1.130001, -0.1399990000000031, 0.9299999999999997, 58.209999, 59.0, 10-18-2009
0.3, 0.5862068965517241,1.4500010000000003, 0.9299999999999997, -0.00999800000000306, -1.740001999999997, 59.0, 57.25, 10-19-2009
0.23076923076923078, 0.6333333333333333,2.4399990000000003, -1.740001999999997, 0.6399990000000031, 0.5200009999999935, 57.25, 58.41, 10-20-2009
0.2857142857142857, 0.6363636363636364,0.9100000000000037, 0.5200009999999935, -0.20999899999999627, -1.7700010000000006, 58.41, 56.43, 10-21-2009
0.5, 0.7222222222222222,1.5300029999999936, 0.75, -0.5, 0.9899979999999999, 57.490002, 57.98, 11-1-2009
0.5, 0.8048780487804879,1.9700010000000034, 0.9899979999999999, 0.5499989999999997, -0.869999, 57.98, 57.66, 11-2-2009
0.14285714285714285, 0.4583333333333333,1.1700020000000038, -0.869999, 0.49000200000000405, 1.0399969999999996, 57.66, 59.189999, 11-3-2009
0.5, 0.7560975609756098,1.399996999999999, 1.0399969999999996, -0.5799980000000033, 0.18999800000000278, 59.189999, 58.799999, 11-4-2009
0.3333333333333333, 0.6666666666666666,1.2999989999999997, 0.18999800000000278, 0.47000100000000344, 1.5999989999999968, 58.799999, 60.869999, 11-5-2009
0.2, 0.7391304347826086,1.7099990000000034, 1.5999989999999968, -0.1599999999999966, 0.26000200000000007, 60.869999, 60.970001, 11-6-2009
0.2222222222222222, 0.5185185185185185,0.8400000000000034, 0.26000200000000007, 0.5200009999999935, -0.3100019999999972, 60.970001, 61.18, 11-7-2009
0.375, 0.6071428571428571,0.9399990000000003, -0.3100019999999972, -0.08000200000000035, -0.8699980000000025, 61.18, 60.23, 11-8-2009
0.2857142857142857, 0.85,1.3900000000000006, -0.8699980000000025, 0.17000200000000376, -0.04000100000000373, 60.23, 60.360001, 11-9-2009
0.2, 0.7096774193548387,1.1000029999999938, -0.04000100000000373, 0.36000000000000654, 0.7099989999999963, 60.360001, 61.43, 11-10-2009
0.125, 0.5806451612903226,0.9399989999999931, 0.7099989999999963, -0.2999989999999997, 0.12999700000000303, 61.43, 61.259998, 11-11-2009
0.5555555555555556, 0.6086956521739131,0.7200010000000034, 0.12999700000000303, 0.13000100000000003, -0.880001, 61.259998, 60.509998, 11-12-2009
0.1, 0.6206896551724138,1.3099970000000027, -0.880001, -0.3400000000000034, -0.6899980000000028, 60.509998, 59.48, 11-13-2009
0.25, 0.75,1.259998000000003, -0.6899980000000028, -0.38999999999999346, 0.1599999999999966, 59.48, 59.25, 11-14-2009
0.26666666666666666, 0.6176470588235294,0.8600009999999969, 0.1599999999999966, 0.5400009999999966, 0.7399979999999999, 59.25, 60.529999, 11-15-2009
0.15384615384615385, 0.5806451612903226,1.360001000000004, 0.7399979999999999, -0.13999999999999346, -0.5400010000000037, 60.529999, 59.849998, 11-16-2009
0.09090909090909091, 0.5,1.1599989999999991, -0.5400010000000037, 0.2700010000000006, 0.5499989999999997, 59.849998, 60.669998, 11-17-2009
0.2, 0.8,1.0600010000000069, 0.5499989999999997, -1.4299960000000027, 0.09000000000000341, 60.669998, 59.330002, 11-18-2009
0.14285714285714285, 0.6774193548387096,1.2599990000000005, 0.09000000000000341, 0.0, 0.09999799999999937, 59.330002, 59.43, 11-19-2009
0.14285714285714285, 0.5806451612903226,0.619999, -0.1399990000000031, 0.09000000000000341, 0.5499989999999997, 59.91, 60.549999, 12-1-2009
0.2222222222222222, 0.6296296296296297,1.3900000000000006, 0.5499989999999997, 0.20999900000000338, -1.1699979999999996, 60.549999, 59.59, 12-2-2009
0.0, 0.9285714285714286,1.260002, -1.1699979999999996, 0.8899999999999935, -0.09999899999999684, 59.59, 60.380001, 12-3-2009
0.2, 0.7428571428571429,0.9399980000000028, -0.09999899999999684, -0.21000300000000038, 0.1600040000000007, 60.380001, 60.330002, 12-4-2009
0.15384615384615385, 0.5789473684210527,0.7299989999999994, 0.1600040000000007, -0.4600030000000004, -1.0299989999999966, 60.330002, 58.84, 12-5-2009
0.5, 0.6296296296296297,1.3299979999999962, -1.0299989999999966, 0.1100009999999969, 0.48999799999999993, 58.84, 59.439999, 12-6-2009
0.07142857142857142, 0.4666666666666667,1.3399999999999963, 0.48999799999999993, 0.2800020000000032, -0.6800000000000068, 59.439999, 59.040001, 12-7-2009
0.045454545454545456, 0.5846153846153846,1.4099999999999966, -0.6800000000000068, 0.379997000000003, -0.9099999999999966, 59.040001, 58.509998, 12-8-2009
0.25, 0.6756756756756757,1.389999000000003, -0.9099999999999966, 0.3900039999999976, 0.7899969999999996, 58.509998, 59.689999, 12-9-2009
0.3, 0.5370370370370371,1.1099960000000024, 0.7899969999999996, -0.3400010000000009, -0.5399969999999996, 59.689999, 58.810001, 12-10-2009
0.17647058823529413, 0.5576923076923077,1.2999999999999972, -0.5399969999999996, 0.39999800000000363, 0.06999999999999318, 58.810001, 59.279999, 12-11-2009
0.2222222222222222, 0.6521739130434783,0.6500019999999935, 0.06999999999999318, -0.07999799999999624, -0.8900000000000006, 59.279999, 58.310001, 12-12-2009
0.07692307692307693, 0.7169811320754716,0.9700010000000034, -0.8900000000000006, 0.4300009999999972, -0.9600030000000004, 58.310001, 57.779999, 12-13-2009
0.4, 0.7777777777777778,1.25, -0.9600030000000004, 0.3000030000000038, 0.14999799999999652, 57.779999, 58.23, 12-14-2009
0.2, 0.4782608695652174,0.8000040000000013, 0.14999799999999652, 0.31000099999999975, 0.32999800000000334, 58.23, 58.869999, 12-15-2009
0.3333333333333333, 0.7272727272727273,0.8299980000000033, 0.32999800000000334, 0.2700000000000031, 0.1599999999999966, 58.869999, 59.299999, 12-16-2009
0.36363636363636365, 0.5769230769230769,0.8900030000000001, 0.1599999999999966, 0.04999899999999968, 0.22000200000000092, 59.299999, 59.57, 12-17-2009
0.10526315789473684, 0.5294117647058824,0.49000199999999694, 0.22000200000000092, -0.07000000000000028, 0.2900009999999966, 59.57, 59.790001, 12-18-2009
0.0, 0.48214285714285715,0.7999989999999997, 0.2900009999999966, -0.04000099999999662, -0.3899990000000031, 59.790001, 59.360001, 12-19-2009
0.0, 0.56,0.8300020000000004, -0.3899990000000031, -0.3400009999999938, 0.23999799999999993, 59.360001, 59.259998, 12-20-2009
0.3333333333333333, 0.6521739130434783,0.9099999999999966, 0.23999799999999993, 0.19000299999999726, -0.9100000000000037, 59.259998, 58.540001, 12-21-2009
0.2647058823529412, 0.6024096385542169,1.6499970000000062, 1.2999989999999997, -0.19999599999999873, 0.23999700000000246, 60.599998, 60.639999, 1-1-2010
0.25, 0.6483516483516484,0.7399970000000025, 0.23999700000000246, -0.22000100000000344, 1.1700020000000038, 60.639999, 61.59, 1-2-2010
0.06060606060606061, 0.5,1.5800020000000004, 1.1700020000000038, -0.24000200000000405, 0.5200010000000006, 61.59, 61.869999, 1-3-2010
0.1111111111111111, 0.5324675324675324,1.0, 0.5200010000000006, -0.14999799999999652, 0.029998999999996556, 61.869999, 61.75, 1-4-2010
0.35294117647058826, 0.7045454545454546,0.7200019999999938, 0.029998999999996556, 0.13000100000000003, -0.20000100000000032, 61.75, 61.68, 1-5-2010
0.2222222222222222, 0.6764705882352942,0.7099990000000034, -0.20000100000000032, -0.6700019999999967, -0.1799960000000027, 61.68, 60.830002, 1-6-2010
0.21739130434782608, 0.6710526315789473,1.1600000000000037, -0.1799960000000027, 0.34999799999999937, 0.29000100000000373, 60.830002, 61.470001, 1-7-2010
0.10526315789473684, 0.6447368421052632,1.1000020000000035, 0.29000100000000373, 1.3399999999999963, -0.020000000000003126, 61.470001, 62.790001, 1-8-2010
0.17391304347826086, 0.589041095890411,1.25, -0.020000000000003126, -0.04999899999999968, -0.6900029999999973, 62.790001, 62.049999, 1-9-2010
0.4444444444444444, 0.6307692307692307,1.3100010000000069, -0.6900029999999973, 0.1600000000000037, 2.020003999999993, 62.049999, 64.230003, 1-10-2010
0.15, 0.5384615384615384,2.240001999999997, 2.020003999999993, -0.38000499999999704, -0.7199969999999993, 64.230003, 63.130001, 1-11-2010
0.2631578947368421, 0.5538461538461539,1.8500029999999938, -0.7199969999999993, -1.870002999999997, -2.1600000000000037, 63.130001, 59.099998, 1-12-2010
0.19047619047619047, 0.6428571428571429,3.4700010000000034, -2.1600000000000037, 0.20000100000000032, 0.619999, 59.099998, 59.919998, 1-13-2010
0.38095238095238093, 0.6538461538461539,2.0299990000000037, 0.619999, 0.8300020000000004, 0.33000200000000035, 59.919998, 61.080002, 1-14-2010
0.2727272727272727, 0.5714285714285714,0.8899990000000031, 0.33000200000000035, -0.3900030000000001, -0.7199979999999968, 61.080002, 59.970001, 1-15-2010
0.3181818181818182, 0.6212121212121212,1.4500010000000003, -0.7199979999999968, -0.15000100000000316, -0.3100019999999972, 59.970001, 59.509998, 1-16-2010
0.5833333333333334, 0.7413793103448276,1.4300009999999972, -0.3100019999999972, 0.3100019999999972, -0.8100019999999972, 59.509998, 59.009998, 1-17-2010
0.3157894736842105, 0.6329113924050633,2.0400010000000037, -0.8100019999999972, 0.35000299999999385, -0.6800009999999972, 59.009998, 58.68, 1-18-2010
0.1935483870967742, 0.4936708860759494,1.5200009999999935, -0.6800009999999972, 0.5900000000000034, 0.25, 58.68, 59.52, 1-19-2010
0.25, 0.5714285714285714,0.6700019999999967, 0.25, -0.06999900000000281, 0.48999799999999993, 59.52, 59.939999, 2-1-2010
0.14285714285714285, 0.5,1.610000999999997, 0.48999799999999993, -0.34999899999999684, -0.38000100000000003, 59.939999, 59.209999, 2-2-2010
0.1, 0.45714285714285713,1.5, -0.38000100000000003, -0.5099980000000031, -0.9700010000000034, 59.209999, 57.73, 2-3-2010
0.125, 0.6111111111111112,1.4000020000000006, -0.9700010000000034, -0.09000099999999378, 0.7000010000000003, 57.73, 58.34, 2-4-2010
0.16666666666666666, 0.6578947368421053,1.5400009999999966, 0.7000010000000003, 0.020000999999993496, -0.6800009999999972, 58.34, 57.68, 2-5-2010
0.0, 0.5217391304347826,1.4399980000000028, -0.6800009999999972, 0.6899990000000003, 0.7900009999999966, 57.68, 59.16, 2-6-2010
0.0, 0.5925925925925926,1.5899999999999963, 0.7900009999999966, -0.060001999999997224, 0.6500020000000006, 59.16, 59.75, 2-7-2010
0.3076923076923077, 0.625,1.7000000000000028, 0.6500020000000006, -0.16999799999999965, 0.6499979999999965, 59.75, 60.23, 2-8-2010
0.6666666666666666, 0.75,1.370003000000004, 0.6499979999999965, -0.7900009999999966, 0.9200019999999967, 60.23, 60.360001, 2-9-2010
0.2727272727272727, 0.59375,1.6599999999999966, 0.9200019999999967, 0.630001, 0.4299960000000027, 60.360001, 61.419998, 2-10-2010
0.5, 0.7692307692307693,0.8999979999999965, 0.4299960000000027, -0.12999700000000303, 0.5200000000000031, 61.419998, 61.810001, 2-11-2010
0.36363636363636365, 0.41935483870967744,0.880001, 0.5200000000000031, -0.05000299999999669, 0.35000299999999385, 61.810001, 62.110001, 2-12-2010
0.2, 0.6363636363636364,0.8099970000000027, 0.35000299999999385, -0.33000200000000035, 0.7000010000000003, 62.110001, 62.48, 2-13-2010
0.25, 0.4583333333333333,1.380001, 0.7000010000000003, 0.06000099999999975, -0.47000099999999634, 62.48, 62.07, 2-14-2010
0.375, 0.6818181818181818,1.0, -0.47000099999999634, -0.1600000000000037, -0.45999899999999627, 62.07, 61.450001, 2-15-2010
0.0, 0.65625,1.0, -0.45999899999999627, 0.2700000000000031, 0.3799969999999959, 61.450001, 62.099998, 2-16-2010
0.3333333333333333, 0.5172413793103449,1.1599999999999966, 0.3799969999999959, -0.9599989999999963, -0.07999800000000334, 62.099998, 61.060001, 2-17-2010
0.6666666666666666, 0.8333333333333334,0.7200010000000034, -0.07999800000000334, -0.06999900000000281, 0.5499989999999997, 61.060001, 61.540001, 2-18-2010
0.3333333333333333, 0.6724137931034483,1.1899990000000003, 0.6900019999999998, 0.2700010000000006, -0.05000400000000127, 62.380001, 62.599998, 3-1-2010
0.3076923076923077, 0.75,0.7599980000000031, -0.05000400000000127, 0.1800009999999972, 0.1600000000000037, 62.599998, 62.939999, 3-2-2010
0.2777777777777778, 0.7702702702702703,1.2299999999999969, 0.1600000000000037, -0.14000000000000057, 0.1100009999999969, 62.939999, 62.91, 3-3-2010
0.20833333333333334, 0.7549019607843137,0.9000020000000006, 0.1100009999999969, 0.4799990000000065, -0.09999800000000647, 62.91, 63.290001, 3-4-2010
0.11764705882352941, 0.6582278481012658,0.38000100000000003, -0.09999800000000647, 0.14999800000000363, 0.10999999999999943, 63.290001, 63.549999, 3-5-2010
0.3225806451612903, 0.640625,0.5600019999999972, 0.10999999999999943, -0.27999899999999656, -0.3400000000000034, 63.549999, 62.93, 3-6-2010
0.2608695652173913, 0.6119402985074627,0.8700019999999995, -0.3400000000000034, 0.04999999999999716, 0.7200010000000034, 62.93, 63.700001, 3-7-2010
0.08333333333333333, 0.6296296296296297,1.6799999999999997, 0.7200010000000034, -0.36999899999999997, -0.04000100000000373, 63.700001, 63.290001, 3-8-2010
0.1590909090909091, 0.638095238095238,0.5800020000000004, -0.04000100000000373, 0.5700000000000003, 0.3000030000000038, 63.290001, 64.160004, 3-9-2010
0.2777777777777778, 0.6818181818181818,1.0200010000000006, 0.3000030000000038, 0.16999799999999254, 0.1599960000000067, 64.160004, 64.489998, 3-10-2010
0.4411764705882353, 0.628099173553719,0.5899959999999993, 0.1599960000000067, 0.06000500000000386, 0.0899959999999993, 64.489998, 64.639999, 3-11-2010
0.24390243902439024, 0.5597014925373134,0.6899950000000104, 0.0899959999999993, -0.050003000000003794, 1.3100060000000013, 64.639999, 65.900002, 3-12-2010
0.3380281690140845, 0.6714285714285714,1.5600049999999896, 1.3100060000000013, -0.16999900000000423, -0.9900049999999965, 65.900002, 64.739998, 3-13-2010
0.17567567567567569, 0.6060606060606061,1.2300029999999964, -0.9900049999999965, 0.1900020000000069, 0.0, 64.739998, 64.93, 3-14-2010
0.16666666666666666, 0.6491228070175439,0.6999969999999962, 0.0, -0.5400010000000037, 1.0900039999999933, 64.93, 65.480003, 3-15-2010
0.3137254901960784, 0.700507614213198,1.5, 1.0900039999999933, 0.09999899999999684, 0.47000100000001055, 65.480003, 66.050003, 3-16-2010
0.2857142857142857, 0.5739644970414202,0.9799950000000024, 0.47000100000001055, -0.4300000000000068, -0.19000299999999015, 66.050003, 65.43, 3-17-2010
0.2222222222222222, 0.6272189349112426,0.9100040000000007, -0.19000299999999015, 0.3799979999999863, -1.1199959999999862, 65.43, 64.690002, 3-18-2010
0.3225806451612903, 0.628099173553719,1.3999939999999924, -1.1199959999999862, 0.25, 1.1299979999999863, 64.690002, 66.07, 3-19-2010
0.30392156862745096, 0.6366782006920415,1.4899970000000025, 1.1299979999999863, 0.23000300000001062, -0.5400010000000037, 66.07, 65.760002, 3-20-2010
0.23728813559322035, 0.6,1.1599960000000067, -0.5400010000000037, 0.12999700000000303, 0.1600040000000007, 65.760002, 66.050003, 3-21-2010
0.358974358974359, 0.5961538461538461,1.110000999999997, 0.1600040000000007, -0.23000300000001062, -0.41999799999999254, 66.050003, 65.400002, 3-22-2010
0.0, 0.5185185185185185,0.5599980000000073, 0.5299990000000037, 0.12999700000000303, 0.29000100000000373, 66.5, 66.919998, 4-1-2010
0.0, 0.43333333333333335,0.9400029999999902, 0.29000100000000373, -0.04000100000000373, 0.7200009999999963, 66.919998, 67.599998, 4-2-2010
0.25, 0.6206896551724138,1.010002, 0.7200009999999963, -0.3399959999999993, 0.18999499999999614, 67.599998, 67.449997, 4-3-2010
0.375, 0.6764705882352942,1.18000099999999, 0.18999499999999614, -0.2199939999999998, 0.6999970000000104, 67.449997, 67.93, 4-4-2010
0.16666666666666666, 0.8181818181818182,1.129997000000003, 0.6999970000000104, 0.1299979999999863, 0.6200020000000137, 67.93, 68.68, 4-5-2010
0.14285714285714285, 0.4117647058823529,0.8400040000000075, 0.6200020000000137, 0.1100009999999969, 0.09999799999999937, 68.68, 68.889999, 4-6-2010
0.4, 0.5909090909090909,0.47000100000001055, 0.09999799999999937, -0.050003000000003794, 0.49000599999999395, 68.889999, 69.330002, 4-7-2010
0.2, 0.6666666666666666,1.2700040000000001, 0.49000599999999395, 0.0, 0.18000000000000682, 69.330002, 69.510002, 4-8-2010
0.0, 0.7307692307692307,0.8299949999999967, 0.18000000000000682, 0.23999799999999993, -0.019997000000003595, 69.510002, 69.730003, 4-9-2010
0.125, 0.59375,1.7900010000000037, -0.019997000000003595, 0.019997000000003595, -0.5899959999999993, 69.730003, 69.160004, 4-10-2010
0.1111111111111111, 0.5714285714285714,1.5999989999999968, -0.5899959999999993, -0.050003000000003794, 1.0899959999999993, 69.160004, 70.199997, 4-11-2010
0.45454545454545453, 0.56,1.4900050000000107, 1.0899959999999993, 0.17000600000000077, 0.04000100000000373, 70.199997, 70.410004, 4-12-2010
0.42857142857142855, 0.7368421052631579,0.9199980000000068, 0.04000100000000373, -0.33000200000000746, 0.4099960000000067, 70.410004, 70.489998, 4-13-2010
0.5, 0.6842105263157895,1.0299980000000062, 0.4099960000000067, -0.47000099999999634, 0.2300029999999964, 70.489998, 70.25, 4-14-2010
0.6, 0.6666666666666666,0.9199980000000068, 0.2300029999999964, -0.010002000000000066, 1.0299990000000037, 70.25, 71.269997, 4-15-2010
0.1875, 0.5135135135135135,1.5199970000000036, 1.0299990000000037, -0.019997000000003595, -0.5299990000000037, 71.269997, 70.720001, 4-16-2010
0.3, 0.5517241379310345,1.1199959999999862, -0.5299990000000037, 0.08999699999999677, -1.8499989999999968, 70.720001, 68.959999, 4-17-2010
0.16666666666666666, 0.68,2.0800009999999958, -1.8499989999999968, 0.34999899999999684, 0.6100000000000136, 68.959999, 69.919998, 4-18-2010
0.125, 0.5161290322580645,1.260002, 0.6100000000000136, 0.5500029999999896, 0.7699970000000036, 69.919998, 71.239998, 4-19-2010
0.18181818181818182, 0.4090909090909091,1.25, 0.7699970000000036, 0.20000400000000695, -1.06999900000001, 71.239998, 70.370003, 4-20-2010
0.18309859154929578, 0.7158671586715867,0.9899979999999999, 0.4599990000000105, -0.8600009999999969, -1.9499970000000104, 71.279999, 68.470001, 5-1-2010
0.2545454545454545, 0.6203208556149733,2.9399950000000104, -1.9499970000000104, -0.5400009999999895, -0.4599990000000105, 68.470001, 67.470001, 5-2-2010
0.21666666666666667, 0.7048192771084337,1.3100049999999896, -0.4599990000000105, -0.8400039999999933, -1.879997000000003, 67.470001, 64.75, 5-3-2010
0.2982456140350877, 0.64,6.459998999999996, -1.879997000000003, -0.09999799999999937, -0.860001000000004, 64.75, 63.790001, 5-4-2010
0.2982456140350877, 0.7078651685393258,2.6500020000000006, -0.860001000000004, 3.0299989999999966, 0.2699960000000061, 63.790001, 67.089996, 5-5-2010
0.2835820895522388, 0.6020942408376964,1.4800029999999964, 0.2699960000000061, -0.8299939999999992, 0.16999800000000675, 67.089996, 66.43, 5-6-2010
0.3584905660377358, 0.7115384615384616,1.3199989999999957, 0.16999800000000675, 0.3799979999999863, 0.83000100000001, 66.43, 67.639999, 5-7-2010
0.22448979591836735, 0.6294117647058823,1.3000030000000038, 0.83000100000001, -0.3199990000000099, -0.5400009999999895, 67.639999, 66.779999, 5-8-2010
0.23809523809523808, 0.5870646766169154,1.3099979999999931, -0.5400009999999895, -0.6800010000000043, -1.010002, 66.779999, 65.089996, 5-9-2010
0.2857142857142857, 0.7094594594594594,1.760002, -1.010002, 0.3200080000000014, 0.7099989999999963, 65.089996, 66.120003, 5-10-2010
0.16279069767441862, 0.7083333333333334,2.06999900000001, 0.7099989999999963, 0.5400010000000037, -1.0300069999999977, 66.120003, 65.629997, 5-11-2010
0.25, 0.7,2.470001999999994, -1.0300069999999977, -0.18000000000000682, -1.0899959999999993, 65.629997, 64.360001, 5-12-2010
0.2727272727272727, 0.6339285714285714,2.1599959999999996, -1.0899959999999993, -1.2099989999999963, -1.5900010000000009, 64.360001, 61.560001, 5-13-2010
0.3137254901960784, 0.6266666666666667,1.6400000000000006, -1.5900010000000009, -1.3100009999999997, 2.4399990000000003, 61.560001, 62.689999, 5-14-2010
0.2, 0.63125,2.7999989999999997, 2.4399990000000003, -0.22999999999999687, -0.9300000000000068, 62.689999, 61.529999, 5-15-2010
0.09836065573770492, 0.645320197044335,1.0099989999999934, -0.9300000000000068, -1.9799999999999969, 2.6700020000000038, 61.529999, 62.220001, 5-16-2010
0.16417910447761194, 0.6509433962264151,3.230003999999994, 2.6700020000000038, 0.6100009999999969, -0.9700010000000034, 62.220001, 61.860001, 5-17-2010
0.1917808219178082, 0.5272727272727272,1.370002999999997, -0.9700010000000034, 1.3999970000000062, 1.8299979999999962, 61.860001, 65.089996, 5-18-2010
0.32, 0.6983240223463687,2.369994999999996, 1.8299979999999962, -0.1999969999999962, -0.8199990000000099, 65.089996, 64.07, 5-19-2010
0.24561403508771928, 0.6585365853658537,1.1600040000000007, -0.8199990000000099, -0.7200019999999938, -0.8099970000000027, 64.07, 62.540001, 5-20-2010
0.14285714285714285, 0.7058823529411765,1.6500010000000103, -0.8099970000000027, 0.3400000000000034, 1.8500019999999964, 62.540001, 64.730003, 6-1-2010
0.375, 0.6896551724137931,1.9400019999999998, 1.8500019999999964, 0.07000000000000739, -0.8400040000000004, 64.730003, 63.959999, 6-2-2010
0.3, 0.75,1.7100030000000004, -0.8400040000000004, -1.7700000000000031, -0.39999800000000363, 63.959999, 61.790001, 6-3-2010
0.1, 0.6,1.4600030000000004, -0.39999800000000363, 0.0, -1.2700009999999935, 61.790001, 60.52, 6-4-2010
0.4444444444444444, 0.7241379310344828,1.990001999999997, -1.2700009999999935, 0.04000099999999662, 1.5700000000000003, 60.52, 62.130001, 6-5-2010
0.2, 0.5161290322580645,2.0400010000000037, 1.5700000000000003, 0.5200010000000006, -0.740002000000004, 62.130001, 61.91, 6-6-2010
0.09090909090909091, 0.5,1.6699979999999996, -0.740002000000004, 0.9700010000000034, 0.43999900000000025, 61.91, 63.32, 6-7-2010
0.75, 0.56,1.0299990000000037, 0.43999900000000025, -0.5400010000000037, 2.000000000000007, 63.32, 64.779999, 6-8-2010
0.2857142857142857, 0.696969696969697,2.1500010000000103, 2.000000000000007, 0.5400009999999895, -1.25, 64.779999, 64.07, 6-9-2010
0.2, 0.5555555555555556,1.5900039999999933, -1.25, 0.6999970000000104, 0.8100049999999896, 64.07, 65.580002, 6-10-2010
0.2, 0.5555555555555556,1.0400000000000063, 0.8100049999999896, 2.9199980000000068, -1.9599989999999963, 65.580002, 66.540001, 6-11-2010
0.375, 0.6333333333333333,2.199996999999996, -1.9599989999999963, 0.370002999999997, -0.75, 66.540001, 66.160004, 6-12-2010
0.0, 0.55,2.2400050000000107, -0.75, -0.020004999999997608, 0.5200049999999976, 66.160004, 66.660004, 6-13-2010
0.5, 0.6896551724137931,1.1500020000000006, 0.5200049999999976, 1.0499949999999956, -0.9000010000000032, 66.660004, 66.809998, 6-14-2010
0.5, 0.7586206896551724,1.879997000000003, -0.9000010000000032, 0.15000100000000316, -1.4199979999999925, 66.809998, 65.540001, 6-15-2010
0.1, 0.72,1.7699970000000036, -1.4199979999999925, 0.04999499999999557, -0.48999799999999993, 65.540001, 65.099998, 6-16-2010
0.5, 0.8,1.5, -0.48999799999999993, -0.48999700000000246, -1.5, 65.099998, 63.110001, 6-17-2010
0.18181818181818182, 0.5625,1.6600040000000007, -1.5, 0.09999800000000647, -0.25999800000000306, 63.110001, 62.950001, 6-18-2010
0.2, 0.5185185185185185,1.3300020000000004, -0.25999800000000306, 0.2700000000000031, -0.33000200000000035, 62.950001, 62.889999, 6-19-2010
0.0, 0.6842105263157895,1.1000029999999938, -0.33000200000000035, -1.1100000000000065, -0.7799989999999966, 62.889999, 61.0, 6-20-2010
0.5, 0.75,1.1499979999999965, -0.7799989999999966, -0.00999800000000306, -0.5800020000000004, 61.0, 60.41, 6-21-2010
0.3, 0.6557377049180327,1.640003, 0.8399999999999963, 0.1600000000000037, -0.6399990000000031, 61.049999, 60.57, 7-1-2010
0.3333333333333333, 0.627906976744186,1.760002, -0.6399990000000031, 0.6799999999999997, -0.6899990000000003, 60.57, 60.560001, 7-2-2010
0.7, 0.8620689655172413,1.9199979999999996, -0.6899990000000003, -0.1400030000000001, 2.6500020000000006, 60.560001, 63.07, 7-3-2010
0.08333333333333333, 0.5555555555555556,2.7599990000000005, 2.6500020000000006, 0.8899990000000031, 0.2900009999999966, 63.07, 64.25, 7-4-2010
0.5555555555555556, 0.7272727272727273,1.25, 0.2900009999999966, -0.12000299999999697, 0.49000599999999395, 64.25, 64.620003, 7-5-2010
0.125, 0.6206896551724138,1.140002999999993, 0.49000599999999395, -0.19000299999999015, -0.6500010000000103, 64.620003, 63.779999, 7-6-2010
0.3333333333333333, 0.6551724137931034,1.260001999999993, -0.6500010000000103, 0.5500029999999967, 1.0, 63.779999, 65.330002, 7-7-2010
0.42857142857142855, 0.6153846153846154,1.369995000000003, 1.0, -0.31000499999998965, -0.5, 65.330002, 64.519997, 7-8-2010
0.5333333333333333, 0.6538461538461539,1.9100040000000007, -0.5, -0.009995000000003529, 0.0899959999999993, 64.519997, 64.599998, 7-9-2010
0.75, 0.7857142857142857,1.620002999999997, 0.0899959999999993, -0.2799980000000062, -1.8600009999999898, 64.599998, 62.459999, 7-10-2010
0.1111111111111111, 0.5185185185185185,2.2100029999999933, -1.8600009999999898, 0.3600009999999969, -0.6699979999999996, 62.459999, 62.150002, 7-11-2010
0.2727272727272727, 0.5217391304347826,1.5699990000000028, -0.6699979999999996, -0.6800009999999972, 3.1699979999999996, 62.150002, 64.639999, 7-12-2010
0.5, 0.8064516129032258,3.2699969999999965, 3.1699979999999996, 0.5, -0.3399959999999993, 64.639999, 64.800003, 7-13-2010
0.2222222222222222, 0.4838709677419355,1.2799990000000037, -0.3399959999999993, 0.6399990000000031, 0.5599979999999931, 64.800003, 66.0, 7-14-2010
0.42857142857142855, 0.71875,1.7900010000000037, 0.5599979999999931, -0.019997000000003595, 1.6699990000000042, 66.0, 67.650002, 7-15-2010
0.1111111111111111, 0.39285714285714285,1.9000010000000032, 1.6699990000000042, 0.19999599999999873, 0.34999899999999684, 67.650002, 68.199997, 7-16-2010
0.5, 0.8,0.9099960000000067, 0.34999899999999684, 0.630004999999997, -0.02999899999998945, 68.199997, 68.800003, 7-17-2010
0.5714285714285714, 0.782608695652174,1.0299990000000037, -0.02999899999998945, -0.4100040000000007, 0.4499969999999962, 68.800003, 68.839996, 7-18-2010
0.6, 0.7407407407407407,0.7900010000000037, 0.4499969999999962, 0.3400040000000075, -0.36000000000001364, 68.839996, 68.82, 7-19-2010
0.16666666666666666, 0.4230769230769231,1.9200060000000008, -0.36000000000001364, -0.9199979999999925, 1.5699989999999957, 68.82, 69.470001, 7-20-2010
0.25, 0.6176470588235294,1.2900010000000037, 1.010002, -0.7000049999999902, -0.40000100000000316, 71.120003, 70.019997, 8-1-2010
0.25, 0.65625,1.110000999999997, -0.40000100000000316, 0.26000200000000007, 0.5999979999999994, 70.019997, 70.879997, 8-2-2010
0.4166666666666667, 0.6774193548387096,0.7399979999999999, 0.5999979999999994, -0.3399959999999993, -0.29000100000000373, 70.879997, 70.25, 8-3-2010
