0.3333333333333333, 0.7272727272727273,4.260002, -1.1500010000000032, 1.0600010000000069, -1.0200000000000031, 60.66, 60.700001, 1-1-2007
0.05, 0.6263736263736264,2.110000999999997, -1.0200000000000031, 0.5999979999999994, 1.380001, 60.700001, 62.68, 1-2-2007
0.38461538461538464, 0.5714285714285714,2.0999979999999994, 1.380001, 1.1800009999999972, -1.610000999999997, 62.68, 62.25, 1-3-2007
0.5, 0.6818181818181818,2.7099990000000034, -1.610000999999997, -1.25, 0.4500010000000003, 62.25, 61.450001, 1-4-2007
0.0, 0.9166666666666666,1.7700000000000031, 0.4500010000000003, -0.20000100000000032, -0.2700000000000031, 61.450001, 60.98, 1-5-2007
0.18181818181818182, 0.5714285714285714,1.5900009999999938, -0.2700000000000031, 1.0900000000000034, -2.110000999999997, 60.98, 59.959999, 1-6-2007
0.06666666666666667, 0.5,2.370002999999997, -2.110000999999997, 0.04000099999999662, 2.2799989999999966, 59.959999, 62.279999, 1-7-2007
0.3, 0.7875,2.4599990000000034, 2.2799989999999966, -0.1599999999999966, -0.09000000000000341, 62.279999, 62.029999, 1-8-2007
0.2777777777777778, 0.6666666666666666,1.5800020000000004, -0.09000000000000341, -0.11999899999999997, 0.25999800000000306, 62.029999, 62.169998, 1-9-2007
0.6, 0.7288135593220338,1.0799980000000033, 0.25999800000000306, 0.3400000000000034, -0.8099970000000027, 62.169998, 61.700001, 1-10-2007
0.13333333333333333, 0.75,1.5, -0.8099970000000027, 0.7000010000000003, 2.3300009999999958, 61.700001, 64.730003, 1-11-2007
0.3333333333333333, 0.7,2.740001999999997, 2.3300009999999958, 0.7699970000000036, -0.5699999999999932, 64.730003, 64.93, 1-12-2007
0.5454545454545454, 0.7358490566037735,2.0799939999999992, -0.5699999999999932, 0.6399999999999864, 1.9199980000000068, 64.93, 67.489998, 1-13-2007
0.2631578947368421, 0.7936507936507936,2.5800019999999932, 1.9199980000000068, -0.6599960000000067, 0.5299990000000037, 67.489998, 67.360001, 1-14-2007
0.2727272727272727, 0.6857142857142857,1.7200019999999938, 0.5299990000000037, -0.2700049999999976, -2.129997000000003, 67.360001, 64.959999, 1-15-2007
0.2631578947368421, 0.5686274509803921,2.3099969999999956, -2.129997000000003, 0.6399990000000031, -0.029998000000006186, 64.959999, 65.57, 1-16-2007
0.5, 0.7872340425531915,1.1800010000000043, -0.029998000000006186, 0.5999980000000136, -1.139999000000003, 65.57, 65.029999, 1-17-2007
0.07692307692307693, 0.6463414634146342,2.5400010000000037, -1.139999000000003, 0.0, 3.0299989999999895, 65.029999, 68.059998, 1-18-2007
0.20833333333333334, 0.5522388059701493,3.4400019999999927, 3.0299989999999895, -1.360000999999997, 2.430000000000007, 68.059998, 69.129997, 1-19-2007
0.3076923076923077, 0.6470588235294118,3.4199980000000068, 2.430000000000007, 0.370002999999997, 0.0899959999999993, 69.129997, 69.589996, 1-20-2007
0.2777777777777778, 0.6764705882352942,1.8499989999999968, 0.0899959999999993, -0.16999799999999254, -0.7299959999999999, 69.589996, 68.690002, 2-1-2007
0.3333333333333333, 0.7073170731707317,1.5, -0.7299959999999999, 0.16999899999999002, -0.9100040000000007, 68.690002, 67.949997, 2-2-2007
0.375, 0.6222222222222222,1.879997000000003, -0.9100040000000007, 0.9600070000000045, -1.7700049999999976, 67.949997, 67.139999, 2-3-2007
0.25, 0.7339449541284404,2.239998, -1.7700049999999976, 0.010002999999997542, -0.5999989999999968, 67.139999, 66.550003, 2-4-2007
0.55, 0.7575757575757576,1.75, -0.5999989999999968, 0.0, 0.05999799999999311, 66.550003, 66.610001, 2-5-2007
0.2727272727272727, 0.6363636363636364,1.25, 0.05999799999999311, 0.2299950000000024, -0.2699960000000061, 66.610001, 66.57, 2-6-2007
0.25, 0.7796610169491526,1.3400039999999933, -0.2699960000000061, -0.9000019999999864, -0.629997000000003, 66.57, 65.040001, 2-7-2007
0.26666666666666666, 0.6724137931034483,1.760002, -0.629997000000003, 0.9499969999999962, -0.22000099999999634, 65.040001, 65.769997, 2-8-2007
0.2, 0.53125,1.0899960000000135, -0.22000099999999634, 0.22000099999999634, 0.13000499999999704, 65.769997, 66.120003, 2-9-2007
0.631578947368421, 0.6296296296296297,1.0700000000000074, 0.13000499999999704, -0.3199999999999932, -0.010002000000000066, 66.120003, 65.790001, 2-10-2007
0.3333333333333333, 0.5897435897435898,1.389999000000003, -0.010002000000000066, 0.15000100000000316, 1.0599979999999931, 65.790001, 67.0, 2-11-2007
0.4, 0.6857142857142857,1.619995000000003, 1.0599979999999931, -0.5999979999999994, 0.0, 67.0, 66.400002, 2-12-2007
0.4827586206896552, 0.6666666666666666,0.620002999999997, 0.0, 0.20999899999999627, 0.6900020000000069, 66.400002, 67.300003, 2-13-2007
0.4, 0.6951219512195121,1.8000030000000038, 0.6900020000000069, 0.41999799999999254, 0.7900010000000037, 67.300003, 68.510002, 2-14-2007
0.14285714285714285, 0.7222222222222222,1.4700010000000105, 0.7900010000000037, 0.5, -1.1500010000000032, 68.510002, 67.860001, 2-15-2007
0.5, 0.8571428571428571,1.7099990000000105, -1.1500010000000032, 0.5400010000000037, 1.1799999999999926, 67.860001, 69.580002, 2-16-2007
0.5714285714285714, 0.696969696969697,1.4800029999999964, 1.1799999999999926, -1.610000999999997, -0.370002999999997, 69.580002, 67.599998, 2-17-2007
0.21428571428571427, 0.6481481481481481,3.069999999999993, -0.370002999999997, 0.1600040000000007, -0.020004000000000133, 67.599998, 67.739998, 2-18-2007
0.2608695652173913, 0.6163793103448276,1.9700010000000105, 0.6800000000000068, -0.2100070000000045, -0.9199979999999925, 67.050003, 65.919998, 3-1-2007
0.14423076923076922, 0.5204460966542751,1.5200040000000001, -0.9199979999999925, -1.1500010000000032, 0.0300060000000002, 65.919998, 64.800003, 3-2-2007
0.25, 0.6345177664974619,1.8499979999999994, 0.0300060000000002, 0.7999949999999956, 0.5999989999999968, 64.800003, 66.199997, 3-3-2007
0.25301204819277107, 0.588477366255144,0.9799959999999999, 0.5999989999999968, -0.019996999999989384, 1.0299989999999895, 66.199997, 67.209999, 3-4-2007
0.3119266055045872, 0.6487341772151899,2.4700010000000105, 1.0299989999999895, 0.3400040000000075, -0.5800020000000075, 67.209999, 66.970001, 3-5-2007
0.35185185185185186, 0.6523605150214592,1.3499979999999994, -0.5800020000000075, 0.41999800000000675, -0.4799950000000024, 66.970001, 66.910004, 3-6-2007
0.32786885245901637, 0.5961538461538461,1.2300029999999964, -0.4799950000000024, -0.5200049999999976, -0.2699960000000061, 66.910004, 66.120003, 3-7-2007
0.4, 0.7642857142857142,0.7300029999999964, -0.2699960000000061, -0.04000100000000373, -0.20999899999999627, 66.120003, 65.870003, 3-8-2007
0.2631578947368421, 0.7041420118343196,2.3399969999999968, -0.20999899999999627, 0.5799939999999992, 0.9400020000000069, 65.870003, 67.389999, 3-9-2007
0.25316455696202533, 0.6650717703349283,1.8100060000000013, 0.9400020000000069, -0.1900020000000069, -0.4699939999999998, 67.389999, 66.730003, 3-10-2007
0.23853211009174313, 0.6439169139465876,1.0499949999999956, -0.4699939999999998, 0.16999900000000423, -1.2600029999999975, 66.730003, 65.639999, 3-11-2007
0.29850746268656714, 0.6197183098591549,1.75, -1.2600029999999975, 0.8000030000000038, 0.3399969999999968, 65.639999, 66.779999, 3-12-2007
0.3090909090909091, 0.648936170212766,0.9099960000000067, 0.3399969999999968, 0.5200040000000001, 0.629997000000003, 66.779999, 67.93, 3-13-2007
0.29850746268656714, 0.672566371681416,1.2799990000000037, 0.629997000000003, 0.3099979999999931, 1.4800029999999964, 67.93, 69.720001, 3-14-2007
0.4482758620689655, 0.6842105263157895,1.9499969999999962, 1.4800029999999964, 0.7799990000000037, 0.6999969999999962, 69.720001, 71.199997, 3-15-2007
0.28888888888888886, 0.6987951807228916,1.6400000000000006, 0.6999969999999962, 0.06000500000000386, 0.18999499999999614, 71.199997, 71.449997, 3-16-2007
0.5434782608695652, 0.7195121951219512,0.9800039999999939, 0.18999499999999614, 0.5400010000000037, 0.49000499999999647, 71.449997, 72.480003, 3-17-2007
0.3076923076923077, 0.68125,1.7900000000000063, 0.49000499999999647, -0.45000399999999274, -0.05999800000000732, 72.480003, 71.970001, 3-18-2007
0.3384615384615385, 0.6536585365853659,1.1599960000000067, -0.05999800000000732, 1.0299990000000037, -1.3300019999999932, 71.970001, 71.669998, 3-19-2007
0.21052631578947367, 0.7081545064377682,1.989998, -1.3300019999999932, 0.5800019999999932, -0.379997000000003, 71.669998, 71.870003, 3-20-2007
0.16216216216216217, 0.6244131455399061,1.0500040000000013, -0.379997000000003, 0.0899959999999993, -0.620002999999997, 71.870003, 71.339996, 3-21-2007
0.2, 0.711340206185567,1.4500050000000044, 1.119995000000003, -0.8499979999999994, 1.3199999999999932, 72.599998, 73.07, 4-1-2007
0.3333333333333333, 0.7439024390243902,1.9199979999999925, 1.3199999999999932, -0.5299989999999895, 1.610000999999997, 73.07, 74.150002, 4-2-2007
0.55, 0.7105263157894737,2.1799999999999926, 1.610000999999997, -0.09999899999999684, 0.6999969999999962, 74.150002, 74.75, 4-3-2007
0.3333333333333333, 0.7875,1.1900020000000069, 0.6999969999999962, 0.09999799999999937, -0.45999899999999627, 74.75, 74.389999, 4-4-2007
0.5384615384615384, 0.7126436781609196,1.75, -0.45999899999999627, 0.20999899999999627, 1.3100060000000013, 74.389999, 75.910004, 4-5-2007
0.38095238095238093, 0.7368421052631579,1.6000060000000076, 1.3100060000000013, -1.7200019999999938, 1.0199969999999894, 75.910004, 75.209999, 4-6-2007
0.0, 0.5833333333333334,2.0099949999999893, 1.0199969999999894, 0.6100009999999969, 1.3400040000000075, 75.209999, 77.160004, 4-7-2007
0.125, 0.6744186046511628,1.8399960000000135, 1.3400040000000075, -0.1800010000000043, 0.0, 77.160004, 76.980003, 4-8-2007
0.2222222222222222, 0.59375,1.0899959999999993, 0.0, -0.15000100000000316, 0.5199960000000061, 76.980003, 77.349998, 4-9-2007
0.2857142857142857, 0.6818181818181818,1.860000999999997, 0.5199960000000061, 0.15000200000000063, -1.5899959999999993, 77.349998, 75.910004, 4-10-2007
0.21875, 0.6224489795918368,2.129997000000003, -1.5899959999999993, -0.33000200000000746, -0.9299999999999926, 75.910004, 74.650002, 4-11-2007
0.3076923076923077, 0.5398230088495575,1.0800019999999932, -0.9299999999999926, -0.26000299999999754, -0.9099960000000067, 74.650002, 73.480003, 4-12-2007
0.3793103448275862, 0.574468085106383,1.3499979999999994, -0.9099960000000067, 0.09999899999999684, 0.40000100000000316, 73.480003, 73.980003, 4-13-2007
0.3333333333333333, 0.620253164556962,1.370002999999997, 0.40000100000000316, -1.1200019999999995, 1.3499979999999994, 73.980003, 74.209999, 4-14-2007
0.4, 0.5416666666666666,1.7200010000000105, 1.3499979999999994, 0.15000200000000063, 0.029998000000006186, 74.209999, 74.389999, 4-15-2007
0.391304347826087, 0.7115384615384616,0.7900009999999895, 0.029998000000006186, 0.3600009999999969, 0.6500020000000006, 74.389999, 75.400002, 4-16-2007
0.8571428571428571, 0.75,1.509994000000006, 0.6500020000000006, -0.5, -0.40000200000000063, 75.400002, 74.5, 4-17-2007
0.5, 0.7,1.25, -0.40000200000000063, -0.34999799999999937, 0.09999799999999937, 74.5, 74.25, 4-18-2007
0.2857142857142857, 0.7564102564102564,1.1699979999999925, 0.09999799999999937, -0.12000299999999697, -0.6899949999999961, 74.25, 73.440002, 4-19-2007
0.6666666666666666, 0.717948717948718,3.5199969999999894, 1.0499960000000073, 0.1399990000000031, 1.490005999999994, 75.779999, 77.410004, 5-1-2007
0.36666666666666664, 0.6504854368932039,1.9000010000000032, 1.490005999999994, -0.1400069999999971, 0.75, 77.410004, 78.019997, 5-2-2007
0.18181818181818182, 0.5151515151515151,1.5400010000000037, 0.75, 0.10999999999999943, -1.2099989999999963, 78.019997, 76.919998, 5-3-2007
0.2857142857142857, 0.7532467532467533,2.0, -1.2099989999999963, -0.2999950000000098, 0.509994000000006, 76.919998, 77.129997, 5-4-2007
0.25, 0.6388888888888888,1.0200040000000001, 0.509994000000006, -0.509994000000006, 0.12999700000000303, 77.129997, 76.75, 5-5-2007
0.35, 0.7410714285714286,1.8799979999999863, 0.12999700000000303, -0.05999799999999311, -0.75, 76.75, 75.940002, 5-6-2007
0.2727272727272727, 0.7580645161290323,1.6099999999999994, -0.75, -0.20999900000001048, -1.1900019999999927, 75.940002, 74.540001, 5-7-2007
0.09090909090909091, 0.6111111111111112,2.0799939999999992, -1.1900019999999927, 1.0, 0.370002999999997, 74.540001, 75.910004, 5-8-2007
0.20833333333333334, 0.6037735849056604,1.4000010000000032, 0.370002999999997, 0.2299950000000024, 0.9700019999999938, 75.910004, 77.110001, 5-9-2007
0.44, 0.711340206185567,1.5900040000000075, 0.9700019999999938, -0.3000030000000038, -1.0099949999999893, 77.110001, 75.800003, 5-10-2007
0.5555555555555556, 0.7901234567901234,1.700004000000007, -1.0099949999999893, 0.25, -0.40000100000000316, 75.800003, 75.650002, 5-11-2007
0.2631578947368421, 0.6917293233082706,1.6700060000000008, -0.40000100000000316, 0.15000100000000316, 0.8999939999999924, 75.650002, 76.699997, 5-12-2007
0.2727272727272727, 0.75,2.5199969999999894, 0.8999939999999924, -1.1499939999999924, 2.9199979999999925, 76.699997, 78.470001, 5-13-2007
0.29411764705882354, 0.6274509803921569,3.0399929999999955, 2.9199979999999925, 0.26000200000000007, -0.20000399999999274, 78.470001, 78.529999, 5-14-2007
0.42857142857142855, 0.7717391304347826,1.379997000000003, -0.20000399999999274, 0.0, -1.0, 78.529999, 77.529999, 5-15-2007
0.3488372093023256, 0.6239316239316239,1.6700060000000008, -1.0, -0.12999700000000303, 0.11999500000000296, 77.529999, 77.519997, 5-16-2007
0.48, 0.6949152542372882,1.880004999999997, 0.11999500000000296, 1.4700009999999963, -3.1699980000000068, 77.519997, 75.82, 5-17-2007
0.6071428571428571, 0.7355371900826446,3.639999000000003, -3.1699980000000068, 0.9800030000000106, -0.1900020000000069, 75.82, 76.610001, 5-18-2007
0.5714285714285714, 0.7058823529411765,1.4599989999999963, -0.1900020000000069, -0.20999899999999627, -0.5700000000000074, 76.610001, 75.830002, 5-19-2007
0.25, 0.6710526315789473,1.75, -0.5700000000000074, 1.6699980000000068, 0.22000099999999634, 75.830002, 77.720001, 5-20-2007
0.4090909090909091, 0.7204301075268817,2.480003999999994, 0.22000099999999634, 0.5999989999999968, -1.4199979999999925, 77.720001, 76.900002, 5-21-2007
0.25, 0.7333333333333333,1.3199999999999932, -0.7700049999999976, -0.5199960000000061, 2.2900010000000037, 77.139999, 78.910004, 6-1-2007
0.5, 0.6451612903225806,2.5800009999999958, 2.2900010000000037, -0.7100070000000045, -0.2599949999999893, 78.910004, 77.940002, 6-2-2007
0.631578947368421, 0.6458333333333334,1.0800020000000075, -0.2599949999999893, 1.239998, -2.739998, 77.940002, 76.440002, 6-3-2007
0.1111111111111111, 0.5869565217391305,3.180000000000007, -2.739998, -0.36000000000001364, -1.1900029999999902, 76.440002, 74.889999, 6-4-2007
0.6, 0.6491228070175439,2.8999939999999924, -1.1900029999999902, -0.75, 1.1999969999999962, 74.889999, 75.339996, 6-5-2007
0.4666666666666667, 0.7540983606557377,1.9699930000000023, 1.1999969999999962, -0.039992999999995504, 0.3600009999999969, 75.339996, 75.660004, 6-6-2007
0.42857142857142855, 0.5862068965517241,1.5600050000000039, 0.3600009999999969, 0.0, 0.1499939999999924, 75.660004, 75.809998, 6-7-2007
0.3, 0.851063829787234,2.1700050000000033, 0.1499939999999924, 0.29000000000000625, 1.3499989999999968, 75.809998, 77.449997, 6-8-2007
0.43478260869565216, 0.7051282051282052,1.629997000000003, 1.3499989999999968, 0.1600040000000007, 2.400001000000003, 77.449997, 80.010002, 6-9-2007
0.13333333333333333, 0.6987951807228916,2.7200009999999963, 2.400001000000003, 0.27999900000000366, 0.1999969999999962, 80.010002, 80.489998, 6-10-2007
0.3333333333333333, 0.6829268292682927,1.4000010000000032, 0.1999969999999962, 0.9000010000000032, -1.129997000000003, 80.489998, 80.260002, 6-11-2007
0.7, 0.7959183673469388,1.379997000000003, -1.129997000000003, -0.31000500000000386, -0.5, 80.260002, 79.449997, 6-12-2007
0.6666666666666666, 0.7333333333333333,0.8599999999999994, -0.5, 0.25, -2.9199979999999925, 79.449997, 76.779999, 6-13-2007
0.3333333333333333, 0.7954545454545454,3.7900010000000037, -2.9199979999999925, 1.0599969999999956, 1.0600060000000013, 76.779999, 78.900002, 6-14-2007
0.2, 0.6,1.9200050000000033, 1.0600060000000013, -0.8000040000000013, -1.4799950000000024, 78.900002, 76.620003, 6-15-2007
0.0, 0.625,3.2200009999999963, -1.4799950000000024, -1.4100040000000007, -0.7799989999999895, 76.620003, 74.43, 6-16-2007
0.16666666666666666, 0.6296296296296297,1.8199999999999932, -0.7799989999999895, 1.4800039999999939, -3.25, 74.43, 72.660004, 6-17-2007
0.0, 0.5652173913043478,3.940002000000007, -3.25, -1.1000060000000076, 2.300003000000004, 72.660004, 73.860001, 6-18-2007
0.1111111111111111, 0.56,2.5899960000000135, 2.300003000000004, 0.26000200000000007, -1.6700060000000008, 73.860001, 72.449997, 6-19-2007
0.2222222222222222, 0.6415094339622641,2.9799950000000024, -1.6700060000000008, -0.23999799999999993, 0.8499989999999968, 72.449997, 73.059998, 6-20-2007
0.3, 0.7205882352941176,1.5400010000000037, 0.7099989999999963, -1.629997000000003, 2.180000000000007, 74.129997, 74.68, 7-1-2007
0.3888888888888889, 0.7777777777777778,2.760002, 2.180000000000007, -0.6800000000000068, 0.6600040000000007, 74.68, 74.660004, 7-2-2007
0.42857142857142855, 0.8,1.5099949999999893, 0.6600040000000007, 0.8399959999999993, -0.5599979999999931, 74.660004, 74.940002, 7-3-2007
0.16666666666666666, 0.7608695652173914,1.1800000000000068, -0.5599979999999931, -0.4100030000000032, 0.04000099999998952, 74.940002, 74.57, 7-4-2007
0.2, 0.7115384615384616,1.4400020000000069, 0.04000099999998952, -0.5100020000000001, 0.10000600000000759, 74.57, 74.160004, 7-5-2007
0.2, 0.582089552238806,1.639999000000003, 0.10000600000000759, -1.010002, 1.2699960000000061, 74.160004, 74.419998, 7-6-2007
0.29411764705882354, 0.64,1.4199979999999925, 1.2699960000000061, 0.5600049999999896, -0.3900069999999971, 74.419998, 74.589996, 7-7-2007
0.25, 0.45,1.6099999999999994, -0.3900069999999971, -0.509994000000006, 0.8300020000000075, 74.589996, 74.910004, 7-8-2007
0.5, 0.7906976744186046,1.9499969999999962, 0.8300020000000075, -0.2800069999999977, -1.5799939999999992, 74.910004, 73.050003, 7-9-2007
0.2727272727272727, 0.6170212765957447,2.75, -1.5799939999999992, 0.6899949999999961, -1.049995999999993, 73.050003, 72.690002, 7-10-2007
0.2608695652173913, 0.5074626865671642,1.8199989999999957, -1.049995999999993, -0.4599990000000105, 2.8999940000000066, 72.690002, 75.129997, 7-11-2007
0.2972972972972973, 0.594059405940594,3.130004999999997, 2.8999940000000066, 0.42000600000000077, 0.6499939999999924, 75.129997, 76.199997, 7-12-2007
0.21428571428571427, 0.675,1.4800030000000106, 0.6499939999999924, 0.25, -1.4199979999999925, 76.199997, 75.029999, 7-13-2007
0.6, 0.7916666666666666,2.1999970000000104, -1.4199979999999925, -1.4199980000000068, -1.5200049999999976, 75.029999, 72.089996, 7-14-2007
0.42857142857142855, 0.5555555555555556,2.2099989999999963, -1.5200049999999976, -0.9399939999999987, -0.870002999999997, 72.089996, 70.279999, 7-15-2007
0.5555555555555556, 0.9230769230769231,1.5299980000000062, -0.870002999999997, -0.379997000000003, 1.3399959999999993, 70.279999, 71.239998, 7-16-2007
0.6, 0.6428571428571429,2.4800029999999964, 1.3399959999999993, -0.379997000000003, -0.9100040000000007, 71.239998, 69.949997, 7-17-2007
0.08333333333333333, 0.6470588235294118,2.8299939999999992, -0.9100040000000007, 0.0, -0.8399959999999993, 69.949997, 69.110001, 7-18-2007
0.25, 0.7619047619047619,2.6599959999999925, -0.8399959999999993, 0.6399990000000031, 1.3399959999999993, 69.110001, 71.089996, 7-19-2007
0.25, 0.43478260869565216,2.1000060000000076, 1.3399959999999993, 1.1600040000000007, -2.1500020000000006, 71.089996, 70.099998, 7-20-2007
0.0, 0.4166666666666667,3.1700050000000033, 0.9499969999999962, 0.8500060000000076, 0.6999969999999962, 71.589996, 73.139999, 8-1-2007
0.4166666666666667, 0.6216216216216216,3.139999000000003, 0.6999969999999962, -1.3399959999999993, -1.3300020000000075, 73.139999, 70.470001, 8-2-2007
0.5555555555555556, 0.7777777777777778,3.2999960000000073, -1.3300020000000075, -0.10999999999999943, 0.1599960000000067, 70.470001, 70.519997, 8-3-2007
0.5, 0.6129032258064516,3.0199970000000036, 0.1599960000000067, 0.22000099999999634, 1.25, 70.519997, 71.989998, 8-4-2007
0.25, 0.5666666666666667,3.0700000000000074, 1.25, 1.010002, 0.25, 71.989998, 73.25, 8-5-2007
0.0, 0.6086956521739131,3.0399929999999955, 0.25, -1.239998, 1.119995000000003, 73.25, 73.129997, 8-6-2007
0.3333333333333333, 0.4642857142857143,4.740005999999994, 1.119995000000003, -2.129997000000003, 0.9899979999999999, 73.129997, 71.989998, 8-7-2007
0.8, 0.8461538461538461,3.030006, 0.9899979999999999, 0.45999899999999627, -0.9599989999999963, 71.989998, 71.489998, 8-8-2007
0.5263157894736842, 0.7096774193548387,1.5400010000000037, -0.9599989999999963, -0.29000100000000373, -0.8600009999999969, 71.489998, 70.339996, 8-9-2007
0.125, 0.47619047619047616,1.9400020000000069, -0.8600009999999969, 0.6900030000000044, -2.349998999999997, 70.339996, 68.68, 8-10-2007
0.3333333333333333, 0.5333333333333333,3.5, -2.349998999999997, -1.1800000000000068, 1.5, 68.68, 69.0, 8-11-2007
0.3333333333333333, 0.5789473684210527,3.880004999999997, 1.5, 1.1600040000000007, 1.4199979999999925, 69.0, 71.580002, 8-12-2007
0.3076923076923077, 0.5294117647058824,2.68000099999999, 1.4199979999999925, -1.7200009999999963, -0.08000199999999325, 71.580002, 69.779999, 8-13-2007
0.0, 0.6,2.3399959999999993, -0.08000199999999325, -0.6100009999999969, -1.0800020000000075, 69.779999, 68.089996, 8-14-2007
0.6666666666666666, 0.7391304347826086,2.199996999999996, -1.0800020000000075, 0.7100070000000045, -2.1000060000000076, 68.089996, 66.699997, 8-15-2007
0.25, 0.6363636363636364,2.760002, -2.1000060000000076, 0.7000050000000044, -0.33000200000000746, 66.699997, 67.07, 8-16-2007
0.0, 0.5625,1.8499989999999968, -0.33000200000000746, 0.5299980000000062, 0.29000100000000373, 67.07, 67.889999, 8-17-2007
0.15789473684210525, 0.56,1.2799989999999895, 0.29000100000000373, -0.2799980000000062, -0.7700049999999976, 67.889999, 66.839996, 8-18-2007
0.15384615384615385, 0.5925925925925926,1.1600040000000007, -0.7700049999999976, -0.4799950000000024, -0.6600040000000007, 66.839996, 65.699997, 8-19-2007
0.5, 0.5625,1.370002999999997, -0.6600040000000007, 0.5600050000000039, 0.45999899999999627, 65.699997, 66.720001, 8-20-2007
0.25, 0.6296296296296297,1.4299999999999926, 0.45999899999999627, 0.0, 0.019997000000003595, 66.720001, 66.739998, 8-21-2007
0.25, 0.65,1.880004999999997, 0.019997000000003595, 0.6700060000000008, -0.050003000000003794, 66.739998, 67.360001, 8-22-2007
0.0, 0.5555555555555556,2.9899970000000025, 1.7699960000000061, -0.009994000000006054, 0.2699960000000061, 69.129997, 69.389999, 9-1-2007
0.2222222222222222, 0.5714285714285714,1.1600040000000007, 0.2699960000000061, 0.2700049999999976, 1.0399929999999955, 69.389999, 70.699997, 9-2-2007
0.3, 0.7272727272727273,1.9299919999999986, 1.0399929999999955, -0.629997000000003, -0.16999799999999254, 70.699997, 69.900002, 9-3-2007
0.25, 0.5769230769230769,1.2199939999999998, -0.16999799999999254, -0.09999899999999684, 0.5199969999999894, 69.900002, 70.32, 9-4-2007
0.2222222222222222, 0.5416666666666666,2.139999000000003, 0.5199969999999894, 0.09000400000000752, 0.879997000000003, 70.32, 71.290001, 9-5-2007
0.5, 0.7619047619047619,2.349998999999997, 0.879997000000003, 0.30999699999999564, 0.9199990000000042, 71.290001, 72.519997, 9-6-2007
0.2857142857142857, 0.7058823529411765,2.0499949999999956, 0.9199990000000042, -0.07000000000000739, -0.7299959999999999, 72.519997, 71.720001, 9-7-2007
0.14285714285714285, 0.5483870967741935,1.3099980000000073, -0.7299959999999999, -0.7099989999999963, 1.3399959999999993, 71.720001, 72.349998, 9-8-2007
0.18181818181818182, 0.5675675675675675,1.6400000000000006, 1.3399959999999993, 0.2200019999999938, -0.7200019999999938, 72.349998, 71.849998, 9-9-2007
0.2222222222222222, 0.5789473684210527,1.239998, -0.7200019999999938, 0.15000200000000063, 1.8499979999999994, 71.849998, 73.849998, 9-10-2007
0.3333333333333333, 0.6153846153846154,3.139999000000003, 1.8499979999999994, 0.8499989999999968, -0.47999599999999987, 73.849998, 74.220001, 9-11-2007
0.6666666666666666, 0.6,1.2099989999999963, -0.47999599999999987, -0.35999999999999943, -0.02999900000000366, 74.220001, 73.830002, 9-12-2007
0.2, 0.5294117647058824,1.18000099999999, -0.02999900000000366, 0.7900010000000037, -0.13000499999999704, 73.830002, 74.489998, 9-13-2007
0.16666666666666666, 0.8703703703703703,1.4199980000000068, -0.13000499999999704, -0.0899959999999993, -0.6400000000000006, 74.489998, 73.760002, 9-14-2007
0.05263157894736842, 0.5692307692307692,1.6000059999999934, -0.6400000000000006, -0.8100050000000039, -0.07999399999999923, 73.760002, 72.870003, 9-15-2007
0.25, 0.6470588235294118,1.620002999999997, -0.07999399999999923, 0.5799939999999992, -1.0799939999999992, 72.870003, 72.370003, 9-16-2007
0.2, 0.45454545454545453,2.25, -1.0799939999999992, 0.629997000000003, -0.620002999999997, 72.370003, 72.379997, 9-17-2007
0.25, 0.6538461538461539,1.489998, -0.620002999999997, 0.42000600000000077, -0.47000100000001055, 72.379997, 72.330002, 9-18-2007
0.15151515151515152, 0.5927835051546392,1.2100070000000045, 0.8599930000000029, -0.47999599999999987, 1.9099959999999925, 73.269997, 74.699997, 10-1-2007
0.24444444444444444, 0.6144578313253012,2.8200000000000074, 1.9099959999999925, -0.3600009999999969, 0.1400069999999971, 74.699997, 74.480003, 10-2-2007
0.3695652173913043, 0.7123287671232876,1.2099990000000105, 0.1400069999999971, 0.14000000000000057, 1.9300000000000068, 74.480003, 76.550003, 10-3-2007
0.3888888888888889, 0.6569767441860465,2.9199980000000068, 1.9300000000000068, -0.1399990000000031, 1.0, 76.550003, 77.410004, 10-4-2007
0.2857142857142857, 0.7104072398190046,1.6600040000000007, 1.0, -0.8600009999999969, -0.04000100000000373, 77.410004, 76.510002, 10-5-2007
0.22033898305084745, 0.7160493827160493,1.2200010000000105, -0.04000100000000373, 0.5899959999999993, 1.1600040000000007, 76.510002, 78.260002, 10-6-2007
0.3157894736842105, 0.680672268907563,2.1699979999999925, 1.1600040000000007, -0.4300000000000068, 1.7200010000000105, 78.260002, 79.550003, 10-7-2007
0.4117647058823529, 0.7370689655172413,2.370002999999997, 1.7200010000000105, 0.379997000000003, 0.9700019999999938, 79.550003, 80.900002, 10-8-2007
0.38823529411764707, 0.6776859504132231,2.7900000000000063, 0.9700019999999938, -0.48999799999999993, 0.9599989999999963, 80.900002, 81.370003, 10-9-2007
0.36363636363636365, 0.7440944881889764,1.6400000000000006, 0.9599989999999963, 0.7799990000000037, -0.48999799999999993, 81.370003, 81.660004, 10-10-2007
0.21568627450980393, 0.676829268292683,2.1800010000000043, -0.48999799999999993, -0.010002000000000066, 0.029998000000006186, 81.660004, 81.68, 10-11-2007
0.0967741935483871, 0.5771428571428572,1.0300060000000002, 0.029998000000006186, 0.3199999999999932, -0.4800029999999964, 81.68, 81.519997, 10-12-2007
0.35185185185185186, 0.688,1.6500010000000032, -0.4800029999999964, -0.05999800000000732, 0.7099990000000105, 81.519997, 82.169998, 10-13-2007
0.2127659574468085, 0.6845637583892618,1.4199979999999925, 0.7099990000000105, -0.29000100000000373, -2.0799939999999992, 82.169998, 79.800003, 10-14-2007
0.36065573770491804, 0.6825396825396826,2.389999000000003, -2.0799939999999992, -1.9100040000000007, 0.5, 79.800003, 78.389999, 10-15-2007
0.2830188679245283, 0.6858974358974359,1.9800029999999964, 0.5, 0.870002999999997, -1.8300019999999932, 78.389999, 77.43, 10-16-2007
0.40540540540540543, 0.6538461538461539,2.9099960000000067, -1.8300019999999932, -0.11000000000001364, 1.2300030000000106, 77.43, 78.550003, 10-17-2007
0.35, 0.6894409937888198,2.680000000000007, 1.2300030000000106, 0.3199999999999932, 1.8999940000000066, 78.550003, 80.769997, 10-18-2007
0.22641509433962265, 0.6473684210526316,2.199996999999996, 1.8999940000000066, 1.4900049999999965, -0.34999799999999937, 80.769997, 81.910004, 10-19-2007
0.4, 0.717391304347826,2.1600030000000032, -0.34999799999999937, 0.5799939999999992, 0.020004000000000133, 81.910004, 82.510002, 10-20-2007
0.2631578947368421, 0.6666666666666666,0.9599989999999963, 0.020004000000000133, 1.5799939999999992, 1.860000999999997, 82.510002, 85.949997, 10-21-2007
0.5333333333333333, 0.6916666666666667,2.3899999999999864, 1.860000999999997, 0.9200060000000008, 1.7299950000000024, 85.949997, 88.599998, 10-22-2007
0.42857142857142855, 0.41935483870967744,2.510002, -0.870002999999997, 0.870002999999997, 0.0, 86.599998, 87.470001, 11-1-2007
0.4, 0.7105263157894737,1.889999000000003, 0.0, -0.7200009999999963, 0.25, 87.470001, 87.0, 11-2-2007
0.2, 0.7027027027027027,3.7099989999999963, 0.25, 1.389999000000003, 0.08000199999999325, 87.0, 88.470001, 11-3-2007
0.2, 0.56,3.130004999999997, 0.08000199999999325, -0.370002999999997, -1.4000010000000032, 88.470001, 86.699997, 11-4-2007
0.18181818181818182, 0.42857142857142855,2.400001000000003, -1.4000010000000032, 0.10000600000000759, 1.3199999999999932, 86.699997, 88.120003, 11-5-2007
0.2, 0.6666666666666666,3.4100040000000007, 1.3199999999999932, -0.990005999999994, 0.2800069999999977, 88.120003, 87.410004, 11-6-2007
0.3333333333333333, 0.6285714285714286,1.9599999999999937, 0.2800069999999977, -1.6600040000000007, -1.4599989999999963, 87.410004, 84.290001, 11-7-2007
0.36363636363636365, 0.75,3.4099960000000067, -1.4599989999999963, 0.5400009999999895, 0.8300020000000075, 84.290001, 85.660004, 11-8-2007
0.15384615384615385, 0.5454545454545454,3.0400009999999895, 0.8300020000000075, 1.5899959999999993, 0.0, 85.660004, 87.25, 11-9-2007
0.2727272727272727, 0.725,3.220001999999994, 0.0, -0.16999800000000675, -1.9800039999999939, 87.25, 85.099998, 11-10-2007
0.3333333333333333, 0.7916666666666666,2.989998, -1.9800039999999939, 0.27999900000000366, -0.09999799999999937, 85.099998, 85.279999, 11-11-2007
0.0, 0.5714285714285714,2.130004999999997, -0.09999799999999937, -0.26000200000000007, -1.0399940000000072, 85.279999, 83.980003, 11-12-2007
0.4166666666666667, 0.7666666666666667,2.120002999999997, -1.0399940000000072, 0.47999599999999987, -0.7399979999999999, 83.980003, 83.720001, 11-13-2007
0.4444444444444444, 0.72,2.2299950000000024, -0.7399979999999999, -0.620002999999997, -0.6500010000000032, 83.720001, 82.449997, 11-14-2007
0.0, 0.7083333333333334,1.860000999999997, -0.6500010000000032, 0.33000200000000746, 0.8599999999999994, 82.449997, 83.639999, 11-15-2007
0.45454545454545453, 0.7096774193548387,1.9400030000000044, 0.8599999999999994, 0.5100029999999975, -1.25, 83.639999, 82.900002, 11-16-2007
0.4117647058823529, 0.5740740740740741,2.3599999999999994, -1.25, -1.6699990000000042, 1.2699970000000036, 82.900002, 82.5, 11-17-2007
0.3333333333333333, 0.7857142857142857,1.8399959999999993, 1.2699970000000036, 0.4499969999999962, 0.7400050000000107, 82.5, 83.690002, 11-18-2007
0.3, 0.6571428571428571,2.2099989999999963, 0.7400050000000107, -0.06000500000000386, -0.41999800000000675, 83.690002, 83.209999, 11-19-2007
0.1, 0.6216216216216216,2.2099989999999963, -0.41999800000000675, -0.7099989999999963, 0.27999900000000366, 83.209999, 82.779999, 11-20-2007
0.16666666666666666, 0.746031746031746,1.75, 0.3099979999999931, 0.11000000000001364, -0.15000100000000316, 82.809998, 82.769997, 12-1-2007
0.375, 0.6060606060606061,1.6800000000000068, -0.15000100000000316, 0.9900049999999965, 1.4799959999999999, 82.769997, 85.239998, 12-2-2007
0.0, 0.6666666666666666,2.240005999999994, 1.4799959999999999, -0.02999900000000366, 3.610000999999997, 85.239998, 88.82, 12-3-2007
0.4, 0.7857142857142857,4.2799989999999895, 3.610000999999997, 0.3400040000000075, -1.0, 88.82, 88.160004, 12-4-2007
0.3333333333333333, 0.6486486486486487,2.650001000000003, -1.0, 0.0699989999999957, 0.48999799999999993, 88.160004, 88.720001, 12-5-2007
0.14285714285714285, 0.5121951219512195,1.3199999999999932, 0.48999799999999993, 0.27999900000000366, -1.0299990000000037, 88.720001, 87.970001, 12-6-2007
0.38461538461538464, 0.5757575757575758,2.4499970000000104, -1.0299990000000037, 1.9599990000000105, 0.9599989999999963, 87.970001, 90.889999, 12-7-2007
0.3333333333333333, 0.6470588235294118,1.9399949999999961, 0.9599989999999963, -1.08000100000001, 0.6200020000000137, 90.889999, 90.43, 12-8-2007
0.3076923076923077, 0.5681818181818182,2.54999500000001, 0.6200020000000137, -0.4800030000000106, -1.5999989999999968, 90.43, 88.349998, 12-9-2007
0.3333333333333333, 0.5833333333333334,1.8499979999999994, -1.5999989999999968, -0.20999899999999627, -0.8099970000000098, 88.349998, 87.330002, 12-10-2007
0.2857142857142857, 0.6170212765957447,2.25, -0.8099970000000098, 1.4599990000000105, -1.4400030000000044, 87.330002, 87.349998, 12-11-2007
0.2, 0.5454545454545454,2.25, -1.4400030000000044, 0.6400000000000006, 0.3199999999999932, 87.349998, 88.309998, 12-12-2007
0.3333333333333333, 0.6060606060606061,1.8400040000000075, 0.3199999999999932, 0.6700050000000033, 0.7199939999999998, 88.309998, 89.699997, 12-13-2007
0.0, 0.52,1.6099999999999994, 0.7199939999999998, 0.75, -0.019996999999989384, 89.699997, 90.43, 12-14-2007
0.5555555555555556, 0.6296296296296297,0.9400020000000069, -0.019996999999989384, -0.7200010000000105, 1.3099980000000073, 90.43, 91.019997, 12-15-2007
0.16666666666666666, 0.48148148148148145,1.739998, 1.3099980000000073, -0.22999599999999987, -0.5100020000000001, 91.019997, 90.279999, 12-16-2007
0.26666666666666666, 0.6190476190476191,1.139999000000003, -0.5100020000000001, -0.19999700000001042, -0.45999899999999627, 90.279999, 89.620003, 12-17-2007
0.5555555555555556, 0.72,1.2599949999999893, -0.45999899999999627, 0.2999950000000098, 1.0, 89.620003, 90.919998, 12-18-2007
0.21428571428571427, 0.6956521739130435,1.5299989999999895, 1.0, -0.20999900000001048, -1.4599989999999963, 90.919998, 89.25, 12-19-2007
0.6666666666666666, 0.75,2.0, 1.2900010000000037, 0.010002000000000066, 1.879997000000003, 91.290001, 93.18, 1-1-2008
0.25, 0.5952380952380952,3.25, 1.879997000000003, -0.9700010000000105, -3.239998, 93.18, 88.970001, 1-2-2008
0.16666666666666666, 0.5526315789473685,3.400001000000003, -3.239998, 0.7299959999999999, -1.0799939999999992, 88.970001, 88.620003, 1-3-2008
0.0, 0.5555555555555556,3.3900000000000006, -1.0799939999999992, 0.5999979999999994, -2.3499979999999994, 88.620003, 86.870003, 1-4-2008
0.18181818181818182, 0.6363636363636364,4.099998999999997, -2.3499979999999994, 0.379997000000003, 1.9300000000000068, 86.870003, 89.18, 1-5-2008
0.3, 0.6875,2.2699970000000036, 1.9300000000000068, -0.8499980000000136, 0.6899950000000104, 89.18, 89.019997, 1-6-2008
0.5, 0.5263157894736842,2.3399969999999968, 0.6899950000000104, -1.1299980000000005, 1.0400010000000037, 89.019997, 88.93, 1-7-2008
0.2, 0.6190476190476191,1.9700010000000105, 1.0400010000000037, 0.5400009999999895, 3.6999970000000104, 88.93, 93.169998, 1-8-2008
0.1111111111111111, 0.696969696969697,4.089996999999997, 3.6999970000000104, -1.9199980000000068, -0.26000200000000007, 93.169998, 90.989998, 1-9-2008
0.2727272727272727, 0.5,2.559997999999993, -0.26000200000000007, -0.36999500000000296, -2.010002, 90.989998, 88.610001, 1-10-2008
0.5, 0.5714285714285714,3.889999000000003, -2.010002, 0.10999999999999943, -4.730002999999996, 88.610001, 83.989998, 1-11-2008
0.2727272727272727, 0.6,6.680000000000007, -4.730002999999996, 0.45000400000000695, 0.6899949999999961, 83.989998, 85.129997, 1-12-2008
0.3333333333333333, 0.8125,3.1599960000000067, 0.6899949999999961, -3.019996000000006, 1.3499979999999994, 85.129997, 83.459999, 1-13-2008
0.0, 0.375,5.599997999999999, 1.3499979999999994, -2.0400009999999895, 1.240005999999994, 83.459999, 82.660004, 1-14-2008
0.3333333333333333, 0.6086956521739131,5.760002, 1.240005999999994, 1.3299939999999992, 1.5999979999999994, 82.660004, 85.589996, 1-15-2008
0.06666666666666667, 0.45161290322580644,3.4100040000000007, 1.5999979999999994, 0.6600040000000007, -2.2699970000000036, 85.589996, 83.980003, 1-16-2008
0.4666666666666667, 0.7073170731707317,4.05999700000001, -2.2699970000000036, -0.050002999999989584, 1.4800039999999939, 83.980003, 85.410004, 1-17-2008
0.05263157894736842, 0.34146341463414637,2.880004999999997, 1.4800039999999939, 0.3399959999999993, -0.7300029999999964, 85.410004, 85.019997, 1-18-2008
0.13043478260869565, 0.5,2.129997000000003, -0.7300029999999964, -0.5399940000000072, 2.0799949999999967, 85.019997, 86.559998, 1-19-2008
0.08333333333333333, 0.46875,4.489998, 2.0799949999999967, -1.66999899999999, 2.44000299999999, 86.559998, 87.330002, 1-20-2008
0.5, 0.625,2.5799939999999992, 2.0299989999999895, -0.32999399999999923, 1.5400010000000037, 89.449997, 90.660004, 2-1-2008
0.2, 0.4772727272727273,2.1699980000000068, 1.5400010000000037, -2.490005999999994, -0.6699980000000068, 90.660004, 87.5, 2-2-2008
0.36363636363636365, 0.6578947368421053,2.5400010000000037, -0.6699980000000068, 1.3399959999999993, -1.0199960000000061, 87.5, 87.82, 2-3-2008
0.19047619047619047, 0.5238095238095238,2.5099949999999893, -1.0199960000000061, -0.6999969999999962, 2.9699930000000023, 87.82, 90.089996, 2-4-2008
0.15384615384615385, 0.4074074074074074,3.879997000000003, 2.9699930000000023, 1.2900010000000037, 2.740005999999994, 90.089996, 94.120003, 2-5-2008
0.2777777777777778, 0.575,4.059997999999993, 2.740005999999994, -0.42000600000000077, 4.730003000000011, 94.120003, 98.43, 2-6-2008
0.25, 0.5652173913043478,5.400002000000001, 4.730003000000011, 0.4099959999999925, -0.9099959999999925, 98.43, 97.93, 2-7-2008
0.0, 0.375,3.7200009999999963, -0.9099959999999925, 0.9400029999999902, 1.2799990000000037, 97.93, 100.150002, 2-8-2008
0.25, 0.6086956521739131,2.139999000000003, 1.2799990000000037, -1.2799990000000037, -1.25, 100.150002, 97.620003, 2-9-2008
0.16666666666666666, 0.48,2.8599999999999994, -1.25, -0.5600050000000039, -1.0299989999999895, 97.620003, 96.029999, 2-10-2008
0.09090909090909091, 0.525,4.989998, -1.0299989999999895, 2.25, 0.13000499999999704, 96.029999, 98.410004, 2-11-2008
0.125, 0.5714285714285714,4.309997999999993, 0.13000499999999704, -1.360000999999997, 3.469994, 98.410004, 100.519997, 2-12-2008
0.16666666666666666, 0.4827586206896552,3.9299999999999926, 3.469994, 0.38000499999999704, -3.230003999999994, 100.519997, 97.669998, 2-13-2008
0.3333333333333333, 0.6666666666666666,3.4400030000000044, -3.230003999999994, 0.20999899999999627, 1.4700009999999963, 97.669998, 99.349998, 2-14-2008
0.2, 0.5,2.5899969999999968, 1.4700009999999963, 0.6699990000000042, 4.109999999999999, 99.349998, 104.129997, 2-15-2008
0.0, 0.3333333333333333,4.650001000000003, 4.109999999999999, -0.29000100000000373, 4.390006999999997, 104.129997, 108.230003, 2-16-2008
0.18181818181818182, 0.5555555555555556,6.54999500000001, 4.390006999999997, -1.7200009999999963, -0.8300019999999932, 108.230003, 105.68, 2-17-2008
0.16666666666666666, 0.5517241379310345,2.6699980000000068, -0.8300019999999932, 7.059997999999993, 11.990004999999996, 105.68, 124.730003, 2-18-2008
0.26666666666666666, 0.6341463414634146,17.34999099999999, 11.990004999999996, -1.6000059999999934, -4.139999000000003, 124.730003, 118.989998, 2-19-2008
0.0, 0.7037037037037037,5.429999999999993, 3.0999980000000136, -2.1699980000000068, -0.09999799999999937, 122.169998, 119.900002, 3-1-2008
0.09090909090909091, 0.5806451612903226,5.870002999999997, -0.09999799999999937, 1.0899959999999993, -0.379997000000003, 119.900002, 120.610001, 3-2-2008
0.16666666666666666, 0.5918367346938775,2.449996999999996, -0.379997000000003, -0.8300019999999932, -2.1699980000000068, 120.610001, 117.610001, 3-3-2008
0.16666666666666666, 0.6571428571428571,3.4099960000000067, -2.1699980000000068, -1.1600040000000007, 0.010002000000000066, 117.610001, 116.459999, 3-4-2008
0.2857142857142857, 0.5757575757575758,3.4700010000000105, 0.010002000000000066, 0.0, -1.9000010000000032, 116.459999, 114.559998, 3-5-2008
0.08333333333333333, 0.5517241379310345,2.9199979999999925, -1.9000010000000032, 2.2099990000000105, 5.130004999999997, 114.559998, 121.900002, 3-6-2008
0.21428571428571427, 0.5882352941176471,6.139999000000003, 5.130004999999997, -0.15000200000000063, -2.819999999999993, 121.900002, 118.93, 3-7-2008
0.14285714285714285, 0.42857142857142855,4.870002000000014, -2.819999999999993, -1.4499970000000104, 9.479996, 118.93, 126.959999, 3-8-2008
0.2727272727272727, 0.43333333333333335,10.669990999999996, 9.479996, -0.7299959999999999, -0.13000499999999704, 126.959999, 126.099998, 3-9-2008
0.18181818181818182, 0.53125,3.9400019999999927, -0.13000499999999704, -2.75, -2.9399939999999987, 126.099998, 120.410004, 3-10-2008
0.0, 0.5454545454545454,6.9700010000000105, -2.9399939999999987, 3.019996000000006, 0.04000099999998952, 120.410004, 123.470001, 3-11-2008
0.4, 0.7619047619047619,2.680000000000007, 0.04000099999998952, -0.6099999999999994, -9.739998, 123.470001, 113.120003, 3-12-2008
0.14285714285714285, 0.6216216216216216,12.209999999999994, -9.739998, -3.120002999999997, 2.2699970000000036, 113.120003, 112.269997, 3-13-2008
0.5555555555555556, 0.5652173913043478,7.220000999999996, 2.2699970000000036, 0.6799999999999926, 1.0600050000000039, 112.269997, 114.010002, 3-14-2008
0.17647058823529413, 0.5517241379310345,4.490005999999994, 1.0600050000000039, 0.7699970000000036, 1.4400019999999927, 114.010002, 116.220001, 3-15-2008
0.125, 0.8064516129032258,4.300003000000004, 1.4400019999999927, -0.45999899999999627, 4.650002000000001, 116.220001, 120.410004, 3-16-2008
0.2727272727272727, 0.5454545454545454,5.799995999999993, 4.650002000000001, -0.04000100000000373, -2.45000499999999, 120.410004, 117.919998, 3-17-2008
0.125, 0.6774193548387096,5.019996000000006, -2.45000499999999, 1.0800019999999932, -0.12000299999999697, 117.919998, 118.879997, 3-18-2008
0.3333333333333333, 0.7,3.3100049999999896, -0.12000299999999697, 1.6600040000000007, -0.5400010000000037, 118.879997, 120.0, 3-19-2008
0.375, 0.4482758620689655,3.9700009999999963, -0.34999799999999937, 0.41999800000000675, 0.06999999999999318, 120.870003, 121.360001, 4-1-2008
0.3333333333333333, 0.65625,4.940002000000007, 0.06999999999999318, -0.9599989999999963, 1.0400000000000063, 121.360001, 121.440002, 4-2-2008
0.25, 0.7391304347826086,3.1999959999999987, 1.0400000000000063, 1.2299959999999999, 1.110000999999997, 121.440002, 123.779999, 4-3-2008
0.09090909090909091, 0.4642857142857143,3.190002000000007, 1.110000999999997, 1.1600030000000032, 1.239998, 123.779999, 126.18, 4-4-2008
0.25, 0.5454545454545454,4.280006, 1.239998, -0.9300000000000068, 3.5099950000000035, 126.18, 128.759995, 4-5-2008
0.0, 0.5238095238095238,4.190001999999993, 3.5099950000000035, -0.9899979999999999, -0.07999499999999671, 128.759995, 127.690002, 4-6-2008
0.25, 0.41935483870967744,3.360000999999997, -0.07999499999999671, -0.24000500000001068, 2.3700100000000077, 127.690002, 129.820007, 4-7-2008
0.14285714285714285, 0.6046511627906976,3.020004, 2.3700100000000077, -1.4700009999999963, -2.0300060000000144, 129.820007, 126.32, 4-8-2008
0.4666666666666667, 0.6862745098039216,3.499999999999986, -2.0300060000000144, 0.16999800000000675, 1.4000010000000032, 126.32, 127.889999, 4-9-2008
0.4666666666666667, 0.6382978723404256,3.1400070000000113, 1.4000010000000032, 2.2100070000000045, 1.0399929999999813, 127.889999, 131.139999, 4-10-2008
0.2222222222222222, 0.3,5.640000000000015, 1.0399929999999813, 1.8099980000000073, 0.050003000000003794, 131.139999, 133.0, 4-11-2008
0.0, 0.6111111111111112,3.479996, 0.050003000000003794, 0.0, -1.0399930000000097, 133.0, 131.960007, 4-12-2008
0.2222222222222222, 0.6206896551724138,3.759994000000006, -1.0399930000000097, 1.0199890000000096, 1.1900019999999927, 131.960007, 134.169998, 4-13-2008
0.2727272727272727, 0.6296296296296297,5.439988, 1.1900019999999927, 0.8200070000000039, 2.41999899999999, 134.169998, 137.410004, 4-14-2008
0.0, 0.45,4.2400049999999965, 2.41999899999999, 0.5699920000000134, -0.7299959999999999, 137.410004, 137.25, 4-15-2008
0.3333333333333333, 0.59375,4.029998000000006, -0.7299959999999999, -0.25, 0.25, 137.25, 137.25, 4-16-2008
0.2857142857142857, 0.6585365853658537,3.2100069999999903, 0.25, -1.6699979999999925, -3.8300020000000075, 137.25, 131.75, 4-17-2008
0.375, 0.6206896551724138,5.340011000000004, -3.8300020000000075, 0.9499969999999962, 3.050003000000004, 131.75, 135.75, 4-18-2008
0.3, 0.631578947368421,5.4200130000000115, 3.050003000000004, 1.1900019999999927, -2.900008999999983, 135.75, 134.039993, 4-19-2008
0.125, 0.5862068965517241,3.3999939999999924, -2.900008999999983, -1.349991000000017, -4.330000999999982, 134.039993, 128.360001, 4-20-2008
0.2, 0.6875,4.789999999999992, -4.330000999999982, 0.1499939999999924, 1.9700009999999963, 128.360001, 130.479996, 4-21-2008
0.2857142857142857, 0.71875,6.649993999999992, -2.3400039999999933, -1.6500010000000032, 2.550003000000004, 126.849998, 127.75, 5-1-2008
0.14285714285714285, 0.6129032258064516,6.080001999999993, 2.550003000000004, 1.0200040000000001, 3.7699890000000096, 127.75, 132.539993, 5-2-2008
0.16666666666666666, 0.5172413793103449,5.120010000000008, 3.7699890000000096, -0.6100000000000136, 5.950012000000015, 132.539993, 137.880005, 5-3-2008
0.46153846153846156, 0.6923076923076923,6.220000999999996, 5.950012000000015, 1.2099910000000023, -4.069992000000013, 137.880005, 135.020004, 5-4-2008
0.6666666666666666, 0.7857142857142857,4.5, -4.069992000000013, -0.4400019999999927, 5.209991000000002, 135.020004, 139.789993, 5-5-2008
0.25, 0.75,5.979996, 5.209991000000002, 1.1000059999999792, -2.389998999999989, 139.789993, 138.5, 5-6-2008
0.5714285714285714, 0.6842105263157895,4.910002999999989, -2.389998999999989, -0.6000060000000076, -1.8999939999999924, 138.5, 136.0, 5-7-2008
0.2222222222222222, 0.6764705882352942,2.799987999999985, -1.8999939999999924, 1.1199949999999887, 1.430008000000015, 136.0, 138.550003, 5-8-2008
0.16666666666666666, 0.42105263157894735,4.810012999999998, 1.430008000000015, 1.0299990000000037, -4.710007000000019, 138.550003, 134.869995, 5-9-2008
0.29411764705882354, 0.4722222222222222,5.350006000000008, -4.710007000000019, 3.0800020000000075, -1.9799959999999999, 134.869995, 135.970001, 5-10-2008
0.25, 0.5517241379310345,5.549987999999985, -1.9799959999999999, 1.240005999999994, 3.779998000000006, 135.970001, 140.990005, 5-11-2008
0.25, 0.7272727272727273,4.790008999999998, 3.779998000000006, 1.1199960000000146, -2.2100070000000187, 140.990005, 139.899994, 5-12-2008
0.36363636363636365, 0.5348837209302325,2.9600070000000187, -2.2100070000000187, 0.27999900000000366, 3.2300109999999904, 139.899994, 143.410004, 5-13-2008
0.0, 0.7,5.0800020000000075, 3.2300109999999904, 0.5899960000000135, -5.199996999999996, 143.410004, 138.800003, 5-14-2008
0.5714285714285714, 0.5714285714285714,6.210005999999993, -5.199996999999996, 0.16999799999999254, -2.270004, 138.800003, 136.699997, 5-15-2008
0.46153846153846156, 0.59375,5.059998000000007, -2.270004, 1.2900080000000003, -3.020004, 136.699997, 134.970001, 5-16-2008
0.18181818181818182, 0.4827586206896552,6.570007000000004, -3.020004, -0.22000099999999634, -1.6199949999999887, 134.970001, 133.130005, 5-17-2008
0.4, 0.8571428571428571,2.820007000000004, -1.6199949999999887, -1.660004000000015, 2.94000299999999, 133.130005, 134.410004, 5-18-2008
0.18181818181818182, 0.5454545454545454,4.489990000000006, 2.94000299999999, -0.8399969999999826, -5.770004, 134.410004, 127.800003, 5-19-2008
0.0, 0.5882352941176471,6.190010000000001, -5.770004, 0.27000400000000013, 0.5599980000000073, 127.800003, 128.630005, 5-20-2008
0.18181818181818182, 0.6111111111111112,4.399994000000007, -0.5600060000000013, -0.619995000000003, -2.650001000000003, 127.339996, 124.07, 6-1-2008
0.4444444444444444, 0.6538461538461539,5.110008000000008, -2.650001000000003, -0.9199979999999925, 0.9399939999999987, 124.07, 124.089996, 6-2-2008
0.09090909090909091, 0.625,3.9899970000000025, 0.9399939999999987, 0.7600020000000001, 6.43999500000001, 124.089996, 131.289993, 6-3-2008
0.16666666666666666, 0.5833333333333334,6.44999700000001, 6.43999500000001, 0.990005999999994, -3.4700009999999963, 131.289993, 128.809998, 6-4-2008
0.125, 0.5277777777777778,8.440001999999993, -3.4700009999999963, 0.9400019999999927, 2.139998999999989, 128.809998, 131.889999, 6-5-2008
0.25, 0.4827586206896552,4.740005999999994, 2.139998999999989, 0.2100070000000187, -3.6399990000000173, 131.889999, 128.460007, 6-6-2008
0.4, 0.7037037037037037,6.229996, -3.6399990000000173, 1.3399960000000135, -1.410004000000015, 128.460007, 128.389999, 6-7-2008
0.18181818181818182, 0.5882352941176471,3.900008999999997, -1.410004000000015, 2.110001000000011, -1.9199979999999925, 128.389999, 128.580002, 6-8-2008
0.3333333333333333, 0.6875,3.150008999999997, -1.9199979999999925, -1.2000050000000044, 2.9300010000000043, 128.580002, 130.309998, 6-9-2008
0.26666666666666666, 0.6153846153846154,4.360008999999991, 2.9300010000000043, 0.9300069999999891, -1.8100120000000004, 130.309998, 129.429993, 6-10-2008
0.0625, 0.35135135135135137,4.449997000000025, -1.8100120000000004, 0.6200100000000077, 1.9599919999999997, 129.429993, 132.009995, 6-11-2008
0.8, 0.7241379310344828,3.640000000000015, 1.9599919999999997, -0.41999899999999, 1.4400029999999902, 132.009995, 133.029999, 6-12-2008
0.25, 0.48717948717948717,3.919998000000021, 1.4400029999999902, 1.8899989999999889, -4.619994999999989, 133.029999, 130.300003, 6-13-2008
0.5, 0.6842105263157895,4.900009000000011, -4.619994999999989, 1.1900019999999927, -1.08000100000001, 130.300003, 130.410004, 6-14-2008
0.5, 0.6875,4.050003000000004, -1.08000100000001, 0.0, 5.129989000000023, 130.410004, 135.539993, 6-15-2008
0.05555555555555555, 0.46511627906976744,6.1700130000000115, 5.129989000000023, -0.5499880000000132, -4.540008, 135.539993, 130.449997, 6-16-2008
0.375, 0.5192307692307693,4.620010000000008, -4.540008, 0.49000499999999647, -3.1000059999999934, 130.449997, 127.839996, 6-17-2008
0.0, 0.5806451612903226,6.179999999999993, -3.1000059999999934, -0.5599969999999956, -1.0899969999999968, 127.839996, 126.190002, 6-18-2008
0.25, 0.5555555555555556,4.149994000000007, -1.0899969999999968, 1.68000099999999, 2.3199989999999957, 126.190002, 130.190002, 6-19-2008
0.18181818181818182, 0.5925925925925926,4.809989999999999, 2.3199989999999957, 1.679992999999996, -0.6699979999999925, 130.190002, 131.199997, 6-20-2008
0.25, 0.2608695652173913,3.050003000000004, 0.009994000000006054, 0.7100069999999903, -7.680000000000007, 131.539993, 124.57, 7-1-2008
0.16666666666666666, 0.782608695652174,9.379996999999989, -7.680000000000007, -0.05999799999999311, -3.800003000000004, 124.57, 120.709999, 7-2-2008
0.14285714285714285, 0.6842105263157895,6.260002, -3.800003000000004, -1.739998, -3.510002, 120.709999, 115.459999, 7-3-2008
0.4, 0.7857142857142857,6.020004, -3.510002, -1.4700009999999963, 3.3499979999999994, 115.459999, 117.339996, 7-4-2008
0.0, 0.4375,7.759994000000006, 3.3499979999999994, 1.1600040000000007, -7.309997999999993, 117.339996, 111.190002, 7-5-2008
0.21428571428571427, 0.6451612903225806,8.459998999999996, -7.309997999999993, 0.23999799999999993, 5.059997999999993, 111.190002, 116.489998, 7-6-2008
0.5, 0.75,5.239998, 5.059997999999993, 0.7600020000000001, 1.3099979999999931, 116.489998, 118.559998, 7-7-2008
0.125, 0.6153846153846154,3.6699980000000068, 1.3099979999999931, 1.3800040000000138, -0.9000010000000032, 118.559998, 119.040001, 7-8-2008
0.2857142857142857, 0.6666666666666666,3.8300020000000075, -0.9000010000000032, -1.4400030000000044, -6.119995000000003, 119.040001, 111.480003, 7-9-2008
0.3333333333333333, 0.6875,8.489998, -6.119995000000003, -1.0500029999999896, -1.989998, 111.480003, 108.440002, 7-10-2008
0.15384615384615385, 0.5,5.5899960000000135, -1.989998, 0.9300009999999901, -4.75, 108.440002, 104.620003, 7-11-2008
0.42857142857142855, 0.5238095238095238,9.599998000000014, -4.75, 0.379997000000003, 1.389999000000003, 104.620003, 106.389999, 7-12-2008
0.3333333333333333, 0.75,5.230003000000011, 1.389999000000003, 1.610000999999997, 1.0299990000000037, 106.389999, 109.029999, 7-13-2008
0.5714285714285714, 0.48484848484848486,4.7399970000000025, 1.0299990000000037, -1.0999989999999968, -1.5, 109.029999, 106.43, 7-14-2008
0.3333333333333333, 0.5,5.609999999999999, -1.5, -0.18000000000000682, -3.2300029999999964, 106.43, 103.019997, 7-15-2008
0.18181818181818182, 0.56,5.650001000000003, -3.2300029999999964, 1.380004999999997, -3.220001999999994, 103.019997, 101.18, 7-16-2008
0.3333333333333333, 0.5806451612903226,7.309998000000007, -3.220001999999994, 1.5400009999999895, 1.3300020000000075, 101.18, 104.050003, 7-17-2008
0.4, 0.5666666666666667,5.069999999999993, 1.3300020000000075, 0.3099979999999931, -2.480003999999994, 104.050003, 101.879997, 7-18-2008
0.125, 0.5106382978723404,5.119995000000003, -2.480003999999994, -1.119995000000003, -0.75, 101.879997, 100.010002, 7-19-2008
0.17647058823529413, 0.6818181818181818,4.04999500000001, -0.75, -1.6900020000000069, 6.8300020000000075, 100.010002, 105.150002, 7-20-2008
0.6666666666666666, 0.6590909090909091,7.330001999999993, 6.8300020000000075, 2.4899970000000025, -7.109999999999999, 105.150002, 100.529999, 7-21-2008
0.07142857142857142, 0.53125,4.879997000000003, -1.139999000000003, -0.6899949999999961, -6.520004, 100.489998, 93.279999, 8-1-2008
0.6, 0.6,7.720000999999996, -6.520004, 0.7200009999999963, 0.8000030000000038, 93.279999, 94.800003, 8-2-2008
0.2, 0.5714285714285714,3.940002000000007, 0.8000030000000038, 0.5099949999999893, 2.6700050000000033, 94.800003, 97.980003, 8-3-2008
0.2, 0.5348837209302325,4.089995999999999, 2.6700050000000033, 0.09999899999999684, -2.45000499999999, 97.980003, 95.629997, 8-4-2008
0.375, 0.7142857142857143,4.400002000000001, -2.45000499999999, -2.31999900000001, 0.5500030000000038, 95.629997, 93.860001, 8-5-2008
0.13636363636363635, 0.5581395348837209,2.3299949999999967, 0.5500030000000038, 1.4700009999999963, 0.02999900000000366, 93.860001, 95.360001, 8-6-2008
0.25, 0.6956521739130435,3.969994, 0.02999900000000366, 0.6800000000000068, -0.7399979999999999, 95.360001, 95.300003, 8-7-2008
0.1111111111111111, 0.6071428571428571,3.900001000000003, -0.7399979999999999, -0.2100070000000045, 4.490005999999994, 95.300003, 99.580002, 8-8-2008
0.16666666666666666, 0.6206896551724138,4.9599990000000105, 4.490005999999994, 0.8899990000000031, -3.4199979999999925, 99.580002, 97.050003, 8-9-2008
0.3, 0.7605633802816901,4.620002999999997, -3.4199979999999925, -1.4100040000000007, -0.04000100000000373, 97.050003, 95.599998, 8-10-2008
0.14285714285714285, 0.6071428571428571,2.4000019999999864, -0.04000100000000373, 0.45000500000000443, -1.3100050000000039, 95.599998, 94.739998, 8-11-2008
0.3, 0.5333333333333333,3.1600040000000007, -1.3100050000000039, -0.36999500000000296, 5.509994000000006, 94.739998, 99.879997, 8-12-2008
0.25, 0.7058823529411765,5.879997000000003, 5.509994000000006, 2.360000999999997, 3.3599999999999994, 99.879997, 105.599998, 8-13-2008
0.5, 0.5714285714285714,4.309997999999993, 3.3599999999999994, 3.2099999999999937, -2.5, 105.599998, 106.309998, 8-14-2008
0.3333333333333333, 0.5555555555555556,4.339996999999997, -2.5, -0.1299979999999863, -2.5400010000000037, 106.309998, 103.639999, 8-15-2008
0.25, 0.6486486486486487,4.5800020000000075, -2.5400010000000037, -0.25, -1.1800000000000068, 103.639999, 102.209999, 8-16-2008
0.3333333333333333, 0.5517241379310345,3.4499970000000104, -1.1800000000000068, 2.680000000000007, 2.870002999999997, 102.209999, 107.760002, 8-17-2008
0.5333333333333333, 0.627906976744186,3.980003999999994, 2.870002999999997, 1.9300000000000068, -0.5200040000000001, 107.760002, 109.169998, 8-18-2008
0.2727272727272727, 0.6578947368421053,3.5, -0.5200040000000001, 2.2900009999999895, -6.120002999999997, 109.169998, 105.339996, 8-19-2008
0.5, 0.6511627906976745,8.370002999999997, -6.120002999999997, 1.6500020000000006, -2.569999999999993, 105.339996, 104.419998, 8-20-2008
0.125, 0.7142857142857143,7.120002999999997, -3.009994000000006, -0.38000499999999704, -1.4199980000000068, 95.910004, 94.110001, 9-1-2008
0.2777777777777778, 0.6428571428571429,5.5900040000000075, -1.4199980000000068, -0.12000299999999697, -0.5400010000000037, 94.110001, 93.449997, 9-2-2008
0.25, 0.7,5.799994999999996, -0.5400010000000037, 1.4900050000000107, 0.8399969999999968, 93.449997, 95.779999, 9-3-2008
0.42857142857142855, 0.6857142857142857,4.280006999999998, 0.8399969999999968, 2.1900019999999927, -5.679999999999993, 95.779999, 92.290001, 9-4-2008
0.36363636363636365, 0.6,6.540001000000004, -5.679999999999993, -1.610000999999997, -6.290001000000004, 92.290001, 84.389999, 9-5-2008
0.2857142857142857, 0.5769230769230769,7.209999999999994, -6.290001000000004, 0.6299980000000005, 2.8000029999999896, 84.389999, 87.82, 9-6-2008
0.125, 0.6470588235294118,4.880004999999997, 2.8000029999999896, -0.1999969999999962, 0.9499969999999962, 87.82, 88.57, 9-7-2008
0.0, 0.6666666666666666,5.970001999999994, 0.9499969999999962, -0.5599979999999931, 2.809997999999993, 88.57, 90.82, 9-8-2008
0.14285714285714285, 0.4375,3.4000020000000006, 2.809997999999993, -5.75, 0.2799980000000062, 90.82, 85.349998, 9-9-2008
0.1111111111111111, 0.65625,5.0400009999999895, 0.2799980000000062, -1.3199989999999957, 3.0500029999999896, 85.349998, 87.080002, 9-10-2008
0.5, 0.5833333333333334,7.139999000000003, 3.0500029999999896, 0.04999500000000978, 1.68000099999999, 87.080002, 88.809998, 9-11-2008
0.07142857142857142, 0.4482758620689655,7.690001999999993, 1.68000099999999, 2.180000000000007, 1.5200040000000001, 88.809998, 92.510002, 9-12-2008
0.3, 0.6666666666666666,7.339995999999999, 1.5200040000000001, 5.069999999999993, -0.5800019999999932, 92.510002, 97.0, 9-13-2008
0.5714285714285714, 0.7222222222222222,7.5, -0.5800019999999932, 0.23999799999999993, -1.5599979999999931, 97.0, 95.68, 9-14-2008
0.2, 0.5555555555555556,5.19999700000001, -1.5599979999999931, -1.6699980000000068, 1.1400000000000006, 95.68, 95.150002, 9-15-2008
0.0, 0.6,6.0100029999999975, 1.1400000000000006, 1.5999979999999994, -1.989998, 95.150002, 94.760002, 9-16-2008
0.08333333333333333, 0.5833333333333334,3.460005999999993, -1.989998, -0.75, 2.869995000000003, 94.760002, 96.879997, 9-17-2008
0.18181818181818182, 0.6,4.8799980000000005, 2.869995000000003, -2.80999700000001, 0.4499970000000104, 96.879997, 94.519997, 9-18-2008
0.06666666666666667, 0.5,5.980003000000011, 0.4499970000000104, -3.5199970000000036, -6.180000000000007, 94.519997, 84.82, 9-19-2008
0.125, 0.64,11.199996999999996, -6.180000000000007, 1.8600000000000136, 2.7799989999999895, 84.82, 89.459999, 9-20-2008
0.1111111111111111, 0.7,7.660004000000001, 1.6500020000000006, -1.0999989999999968, -10.029998000000006, 89.739998, 78.610001, 10-1-2008
0.0, 0.6923076923076923,10.180000000000007, -10.029998000000006, 0.2699960000000061, 1.0600050000000039, 78.610001, 79.940002, 10-2-2008
0.3333333333333333, 0.6153846153846154,8.220000999999996, 1.0600050000000039, -4.940002000000007, 0.75, 79.940002, 75.75, 10-3-2008
0.25, 0.6470588235294118,9.25, 0.75, 1.2200009999999963, -5.809996999999996, 75.75, 71.160004, 10-4-2008
0.1, 0.5925925925925926,7.299994999999996, -5.809996999999996, -3.2100070000000045, 3.680000000000007, 71.160004, 71.629997, 10-5-2008
0.0, 0.5116279069767442,8.699996999999996, 3.680000000000007, 1.4500049999999902, -8.720000999999996, 71.629997, 64.360001, 10-6-2008
0.35714285714285715, 0.6410256410256411,9.389999000000003, -8.720000999999996, -2.7600029999999975, -2.009997999999996, 64.360001, 59.59, 10-7-2008
0.5, 0.8064516129032258,10.270004000000007, -2.009997999999996, 2.439998999999993, 9.720001000000003, 59.59, 71.75, 10-8-2008
0.16666666666666666, 0.45454545454545453,10.190002, 9.720001000000003, 2.1699980000000068, -2.979996, 71.75, 70.940002, 10-9-2008
0.4, 0.5,10.119995000000003, -2.979996, -2.4900050000000107, -7.279998999999997, 70.940002, 61.169998, 10-10-2008
0.42857142857142855, 0.8333333333333334,8.409996, -7.279998999999997, 1.7100030000000004, 6.219996999999999, 61.169998, 69.099998, 10-11-2008
0.26666666666666666, 0.6578947368421053,10.360000999999997, 6.219996999999999, -1.6599959999999925, 1.5, 69.099998, 68.940002, 10-12-2008
0.5, 0.6388888888888888,11.550003000000004, 1.5, 2.720001999999994, 3.379997000000003, 68.940002, 75.040001, 10-13-2008
0.1111111111111111, 0.7241379310344828,5.639999000000003, 3.379997000000003, -2.180000000000007, -0.5, 75.040001, 72.360001, 10-14-2008
0.25, 0.5555555555555556,5.940002000000007, -0.5, -3.2799990000000037, -3.0500029999999896, 72.360001, 66.029999, 10-15-2008
0.0, 0.6451612903225806,6.060001, -3.0500029999999896, 1.3300019999999932, -1.0500030000000038, 66.029999, 66.309998, 10-16-2008
0.0, 0.42857142857142855,8.05999700000001, -1.0500030000000038, -5.04999999999999, 4.610004999999994, 66.309998, 65.870003, 10-17-2008
0.4444444444444444, 0.72,9.950001, 4.610004999999994, -1.7200009999999963, -1.1600000000000037, 65.870003, 62.990002, 10-18-2008
0.0625, 0.5,6.38999900000001, -1.1600000000000037, 1.5799979999999962, 2.9599990000000105, 62.990002, 67.529999, 10-19-2008
0.2857142857142857, 0.6538461538461539,8.119994999999996, 2.9599990000000105, 1.9400019999999927, 3.110000999999997, 67.529999, 72.580002, 10-20-2008
0.125, 0.5625,8.389999000000003, 3.110000999999997, 1.379997000000003, 3.010002, 72.580002, 76.970001, 10-21-2008
0.5714285714285714, 0.6785714285714286,5.729995000000002, 3.010002, -1.6699979999999925, 5.619995000000003, 76.970001, 80.919998, 10-22-2008
0.0625, 0.4883720930232558,5.310006000000001, -2.0500029999999896, 2.9800029999999964, 5.400002000000001, 75.779999, 84.160004, 11-1-2008
0.3333333333333333, 0.6470588235294118,7.940002000000007, 5.400002000000001, -2.0300069999999977, -0.3199990000000099, 84.160004, 81.809998, 11-2-2008
0.26666666666666666, 0.5806451612903226,4.679999999999993, -0.3199990000000099, -2.949996999999996, -1.6900029999999902, 81.809998, 77.169998, 11-3-2008
0.0, 0.8,5.580001999999993, -1.6900029999999902, 0.870002999999997, 1.8399959999999993, 77.169998, 79.879997, 11-4-2008
0.1111111111111111, 0.5,5.330001999999993, 1.8399959999999993, 2.260002, -1.0400010000000037, 79.879997, 81.099998, 11-5-2008
0.2727272727272727, 0.5666666666666667,6.130004999999997, -1.0400010000000037, -2.1799999999999926, -0.09999800000001358, 81.099998, 78.82, 11-6-2008
0.2777777777777778, 0.5333333333333333,4.560006000000001, -0.09999800000001358, -1.8199999999999932, -0.8300019999999932, 78.82, 76.169998, 11-7-2008
0.2857142857142857, 0.6,3.389999000000003, -0.8300019999999932, 0.4100039999999865, 8.389999000000003, 76.169998, 84.970001, 11-8-2008
0.3333333333333333, 0.8461538461538461,13.149994000000007, 8.389999000000003, -1.7000039999999927, -2.6400000000000006, 84.970001, 80.629997, 11-9-2008
0.3, 0.6428571428571429,5.870002999999997, -2.6400000000000006, -0.4499969999999962, 0.2699969999999894, 80.629997, 80.449997, 11-10-2008
0.2727272727272727, 0.7105263157894737,5.300003000000004, 0.2699969999999894, 0.6900020000000069, 1.3900000000000006, 80.449997, 82.529999, 11-11-2008
0.2857142857142857, 0.6666666666666666,5.9100039999999865, 1.3900000000000006, 1.0, -6.25, 82.529999, 77.279999, 11-12-2008
0.3333333333333333, 0.5357142857142857,7.730003999999994, -6.25, -2.0599980000000073, -10.25, 77.279999, 64.970001, 11-13-2008
0.2857142857142857, 0.6666666666666666,12.180000000000007, -10.25, 1.9099960000000067, 7.830001999999993, 64.970001, 74.709999, 11-14-2008
0.3076923076923077, 0.5769230769230769,10.199996999999996, 7.830001999999993, 2.8300020000000075, 6.099997999999999, 74.709999, 83.639999, 11-15-2008
0.25, 0.5151515151515151,10.599998000000014, 6.099997999999999, 0.5500030000000038, -0.1700050000000033, 83.639999, 84.019997, 11-16-2008
0.4444444444444444, 0.5,4.0900040000000075, -0.1700050000000033, -2.739998, 7.190001999999993, 84.019997, 88.470001, 11-17-2008
0.25, 0.6842105263157895,8.029999000000004, 7.190001999999993, -2.0599969999999956, -1.390006999999997, 88.470001, 85.019997, 11-18-2008
0.3, 0.5714285714285714,7.170006000000001, -5.410004000000001, 2.4000020000000006, 1.5199970000000036, 76.099998, 80.019997, 12-1-2008
0.0, 0.48,4.55000299999999, 1.5199970000000036, -1.8299949999999967, 1.799995999999993, 80.019997, 79.989998, 12-2-2008
0.16666666666666666, 0.6923076923076923,4.369995000000003, 1.799995999999993, -2.1699980000000068, -9.02999899999999, 79.989998, 68.790001, 12-3-2008
0.07692307692307693, 0.5428571428571428,11.009995000000004, -9.02999899999999, -1.7900010000000037, 0.9400020000000069, 68.790001, 67.940002, 12-4-2008
0.25, 0.5,5.499996999999993, 0.9400020000000069, 2.6399999999999864, -1.510002, 67.940002, 69.07, 12-5-2008
0.18181818181818182, 0.5,5.650001000000003, -1.510002, -0.9700019999999938, 2.3000040000000013, 69.07, 70.400002, 12-6-2008
0.125, 0.52,7.080001999999993, 2.3000040000000013, 1.4799950000000024, 1.7900010000000037, 70.400002, 73.669998, 12-7-2008
0.16666666666666666, 0.6470588235294118,4.369995000000003, 1.7900010000000037, 1.3100049999999896, -2.9200050000000033, 73.669998, 72.059998, 12-8-2008
0.0, 0.6521739130434783,6.990005999999994, -2.9200050000000033, -3.3299949999999967, -0.7600020000000001, 72.059998, 67.970001, 12-9-2008
0.23076923076923078, 0.46875,2.989998, -0.7600020000000001, 2.0700000000000074, -0.9000020000000006, 67.970001, 69.139999, 12-10-2008
0.14285714285714285, 0.46875,4.220001999999994, -0.9000020000000006, 1.5400010000000037, 0.33000199999999325, 69.139999, 71.010002, 12-11-2008
0.0, 0.6666666666666666,2.5799939999999992, 0.33000199999999325, -0.20999899999999627, -1.2000050000000044, 71.010002, 69.599998, 12-12-2008
0.2, 0.6176470588235294,3.3600000000000136, -1.2000050000000044, -0.44999599999999873, -4.310006000000001, 69.599998, 64.839996, 12-13-2008
0.2857142857142857, 0.7727272727272727,5.599998999999997, -4.310006000000001, 0.050003000000003794, 0.06999999999999318, 64.839996, 64.959999, 12-14-2008
0.1875, 0.7037037037037037,2.759998000000003, 0.06999999999999318, -0.22999599999999987, -3.570003, 64.959999, 61.16, 12-15-2008
0.0, 0.68,5.0100029999999975, -3.570003, 0.20000100000000032, 1.9700010000000034, 61.16, 63.330002, 12-16-2008
0.08333333333333333, 0.6521739130434783,3.509993999999999, 1.9700010000000034, -1.6799999999999997, 1.2099989999999963, 63.330002, 62.860001, 12-17-2008
0.2, 0.5675675675675675,1.7099990000000034, 1.2099989999999963, 0.16999799999999965, 1.239998000000007, 62.860001, 64.269997, 12-18-2008
0.25, 0.7741935483870968,1.5699959999999962, 1.239998000000007, 1.4200050000000033, 0.4499969999999962, 64.269997, 66.139999, 12-19-2008
0.125, 0.6578947368421053,2.1600040000000007, 0.4499969999999962, -0.2799980000000062, -0.04000100000000373, 66.139999, 65.82, 12-20-2008
0.09090909090909091, 0.6774193548387096,2.120002999999997, -0.04000100000000373, -0.9000019999999864, 1.6600039999999865, 65.82, 66.580002, 12-21-2008
0.4, 0.6956521739130435,3.970001999999994, 2.449996999999996, -0.20999899999999627, 0.48999799999999993, 70.389999, 70.669998, 1-1-2009
0.3, 0.5517241379310345,3.8000029999999896, 0.48999799999999993, 0.8600009999999969, -0.4099960000000067, 70.669998, 71.120003, 1-2-2009
0.2, 0.7428571428571429,1.8700019999999995, -0.4099960000000067, -0.9400029999999902, -1.510002, 71.120003, 68.669998, 1-3-2009
0.18181818181818182, 0.6388888888888888,4.139999000000003, -1.510002, 0.9800039999999939, -0.04000100000000373, 68.669998, 69.610001, 1-4-2009
0.4, 0.6875,2.5900039999999933, -0.04000100000000373, -0.05999799999999311, -3.010002, 69.610001, 66.540001, 1-5-2009
0.3, 0.5588235294117647,4.480003999999994, -3.010002, -1.0800020000000075, -1.889998999999996, 66.540001, 63.57, 1-6-2009
0.2, 0.782608695652174,3.5199969999999965, -1.889998999999996, -0.009999000000000535, 3.5200009999999935, 63.57, 67.080002, 1-7-2009
0.15384615384615385, 0.47368421052631576,4.830000999999996, 3.5200009999999935, -1.4800039999999939, -2.2099989999999963, 67.080002, 63.389999, 1-8-2009
0.08333333333333333, 0.6410256410256411,3.5899969999999897, -2.2099989999999963, -0.1399990000000031, 0.7699970000000036, 63.389999, 64.019997, 1-9-2009
0.75, 0.95,3.2000010000000003, 0.7699970000000036, 1.0699989999999957, -1.3599960000000024, 64.019997, 63.73, 1-10-2009
0.07692307692307693, 0.45714285714285713,3.4800029999999964, -1.3599960000000024, -1.0700000000000003, -1.9299999999999997, 63.73, 60.73, 1-11-2009
0.2, 0.5925925925925926,4.589996000000006, -1.9299999999999997, 0.3899990000000031, 4.200000999999993, 60.73, 65.32, 1-12-2009
0.125, 0.6774193548387096,4.669998, 4.200000999999993, -2.439998999999993, 0.8400000000000034, 65.32, 63.720001, 1-13-2009
0.38461538461538464, 0.4857142857142857,3.369999, 0.8400000000000034, -1.2800020000000032, 4.130000999999993, 63.720001, 66.57, 1-14-2009
0.2222222222222222, 0.5227272727272727,6.219997000000006, 4.130000999999993, 1.129997000000003, 0.3000030000000038, 66.57, 68.0, 1-15-2009
0.42857142857142855, 0.5333333333333333,2.9100030000000032, 0.3000030000000038, -0.4100040000000007, -0.9299919999999986, 68.0, 66.660004, 1-16-2009
0.125, 0.5652173913043478,1.8300019999999932, -0.9299919999999986, 1.3399959999999993, 1.9599989999999963, 66.660004, 69.959999, 1-17-2009
0.1111111111111111, 0.6666666666666666,3.3300020000000075, 1.9599989999999963, -1.5899959999999993, 0.1999969999999962, 69.959999, 68.57, 1-18-2009
0.2, 0.6363636363636364,1.8399959999999993, 0.1999969999999962, 1.4300000000000068, -2.2300029999999964, 68.57, 67.769997, 1-19-2009
0.07692307692307693, 0.6071428571428571,1.9399949999999961, 0.379997000000003, 0.8300019999999932, 0.3199990000000099, 66.739998, 67.889999, 2-1-2009
0.5714285714285714, 0.7407407407407407,2.010002, 0.3199990000000099, 0.7900010000000037, -0.09999800000001358, 67.889999, 68.580002, 2-2-2009
0.42857142857142855, 0.5833333333333334,2.1199959999999862, -0.09999800000001358, -0.20999899999999627, 0.7199930000000023, 68.580002, 69.089996, 2-3-2009
0.0, 0.625,3.129997000000003, 0.7199930000000023, -1.4699930000000023, 0.7900010000000037, 69.089996, 68.410004, 2-4-2009
0.2222222222222222, 0.7272727272727273,2.8699959999999862, 0.7900010000000037, 0.8499979999999994, 1.4799959999999999, 68.410004, 70.739998, 2-5-2009
0.5, 0.6521739130434783,2.9100040000000007, 1.4799959999999999, 0.20999899999999627, -4.549994999999996, 70.739998, 66.400002, 2-6-2009
0.09090909090909091, 0.76,5.929999999999993, -4.549994999999996, 1.1999959999999987, -3.2399970000000025, 66.400002, 64.360001, 2-7-2009
0.09090909090909091, 0.41935483870967744,4.360000999999997, -3.2399970000000025, -1.2000010000000003, 0.9399980000000028, 64.360001, 64.099998, 2-8-2009
0.18181818181818182, 0.42857142857142855,2.3000040000000013, 0.9399980000000028, 0.5, -0.8799969999999959, 64.099998, 63.720001, 2-9-2009
0.16666666666666666, 0.6176470588235294,1.9999969999999934, -0.8799969999999959, -1.7299990000000065, -5.75, 63.720001, 56.240002, 2-10-2009
0.3, 0.6153846153846154,5.930000999999997, -5.75, 0.5999980000000065, -0.22000100000000344, 56.240002, 56.619999, 2-11-2009
0.29411764705882354, 0.5555555555555556,2.0700000000000003, -0.22000100000000344, 0.38000100000000003, -1.1799999999999997, 56.619999, 55.82, 2-12-2009
0.0, 0.5909090909090909,2.739998, -1.1799999999999997, -1.2099990000000034, 0.5, 55.82, 55.110001, 2-13-2009
0.5454545454545454, 0.65,2.050003000000004, 0.5, 0.880001, -5.010002, 55.110001, 50.98, 2-14-2009
0.14285714285714285, 0.46875,5.5100029999999975, -5.010002, 0.49000100000000657, 1.860000999999997, 50.98, 53.330002, 2-15-2009
0.05, 0.4375,2.4599989999999963, 1.860000999999997, -0.10000200000000348, -1.2000010000000003, 53.330002, 52.029999, 2-16-2009
0.0, 0.6,2.4000019999999935, -1.2000010000000003, 0.8400000000000034, -1.4599990000000034, 52.029999, 51.41, 2-17-2009
0.25, 0.47368421052631576,2.409998999999999, -1.4599990000000034, -1.3499989999999968, -0.020000000000003126, 51.41, 50.040001, 2-18-2009
0.2608695652173913, 0.6163793103448276,4.660000000000004, -2.6799999999999997, 0.9199979999999996, 1.5300029999999936, 45.59, 48.040001, 3-1-2009
0.14423076923076922, 0.5204460966542751,4.170002000000004, 1.5300029999999936, 1.4199980000000068, 1.639998999999996, 48.040001, 51.099998, 3-2-2009
0.25, 0.6345177664974619,3.5499989999999997, 1.639998999999996, -0.769995999999999, 1.509998000000003, 51.099998, 51.84, 3-3-2009
0.25301204819277107, 0.588477366255144,3.270000000000003, 1.509998000000003, 1.4099999999999966, -1.1799999999999997, 51.84, 52.07, 3-4-2009
0.3119266055045872, 0.6487341772151899,4.1399999999999935, -1.1799999999999997, -0.8400000000000034, -0.8100019999999972, 52.07, 50.419998, 3-5-2009
0.35185185185185186, 0.6523605150214592,2.5400000000000063, -0.8100019999999972, 1.1500020000000006, 1.3399999999999963, 50.419998, 52.91, 3-6-2009
0.32786885245901637, 0.5961538461538461,2.7200010000000034, 1.3399999999999963, 0.40000100000000316, 0.6899990000000003, 52.91, 54.0, 3-7-2009
0.4, 0.7642857142857142,2.2099990000000034, 0.6899990000000003, 0.2700000000000031, 4.540000999999997, 54.0, 58.810001, 3-8-2009
0.2631578947368421, 0.7041420118343196,5.439998000000003, 4.540000999999997, -0.06000099999999975, 0.24000199999999694, 58.810001, 58.990002, 3-9-2009
0.25316455696202533, 0.6650717703349283,1.6899990000000003, 0.24000199999999694, -0.3900039999999976, 2.9200020000000038, 58.990002, 61.52, 3-10-2009
0.23853211009174313, 0.6439169139465876,4.370003000000004, 2.9200020000000038, -0.06000099999999975, 1.639998999999996, 61.52, 63.099998, 3-11-2009
0.29850746268656714, 0.6197183098591549,2.7299989999999994, 1.639998999999996, -0.649996999999999, -0.44000299999999726, 63.099998, 62.009998, 3-12-2009
0.3090909090909091, 0.648936170212766,4.280002999999994, -0.44000299999999726, 1.620002999999997, -0.3899990000000031, 62.009998, 63.240002, 3-13-2009
0.29850746268656714, 0.672566371681416,2.360000999999997, -0.3899990000000031, 0.9699969999999993, -2.259997999999996, 63.240002, 61.950001, 3-14-2009
0.4482758620689655, 0.6842105263157895,3.7200010000000034, -2.259997999999996, 1.6899980000000028, 2.44000299999999, 61.950001, 66.080002, 3-15-2009
0.28888888888888886, 0.6987951807228916,3.220002000000001, 2.44000299999999, -1.1799999999999926, -0.8200000000000074, 66.080002, 64.080002, 3-16-2009
0.5434782608695652, 0.7195121951219512,2.200004, -0.8200000000000074, -0.28000299999999356, -0.35999999999999943, 64.080002, 63.439999, 3-17-2009
0.3076923076923077, 0.68125,4.389999000000003, -0.35999999999999943, 0.640002999999993, -2.0899999999999963, 63.439999, 61.990002, 3-18-2009
0.3384615384615385, 0.6536585365853659,3.6700020000000038, -2.0899999999999963, -1.0500029999999967, -1.6299980000000005, 61.990002, 59.310001, 3-19-2009
0.21052631578947367, 0.7081545064377682,2.25, -1.6299980000000005, -1.640003, -1.009998000000003, 59.310001, 56.66, 3-20-2009
0.16216216216216217, 0.6244131455399061,3.119999, -1.009998000000003, 0.5299990000000037, -2.430000999999997, 56.66, 54.759998, 3-21-2009
0.2857142857142857, 0.6428571428571429,4.319999999999993, 3.370002999999997, 1.5399969999999996, 1.6600040000000007, 57.130001, 60.330002, 4-1-2009
0.2857142857142857, 0.7575757575757576,2.740002000000004, 1.6600040000000007, -0.010002000000000066, 2.819999000000003, 60.330002, 63.139999, 4-2-2009
0.1111111111111111, 0.4090909090909091,4.380000999999993, 2.819999000000003, -1.0699990000000028, -1.369999, 63.139999, 60.700001, 4-3-2009
0.07692307692307693, 0.4,2.4500010000000003, -1.369999, -1.360000999999997, -1.369999, 60.700001, 57.970001, 4-4-2009
0.16666666666666666, 0.6551724137931034,2.1899980000000028, -1.369999, -0.6800000000000068, 1.759998000000003, 57.970001, 59.049999, 4-5-2009
0.0, 0.631578947368421,3.7100030000000004, 1.759998000000003, 1.9700010000000034, 0.32999799999999624, 59.049999, 61.349998, 4-6-2009
0.23529411764705882, 0.6964285714285714,2.380001, 0.32999799999999624, -0.9199979999999996, 1.5400010000000037, 61.349998, 61.970001, 4-7-2009
0.15384615384615385, 0.6578947368421053,4.020000000000003, 1.5400010000000037, -0.13000100000000003, -1.3200000000000003, 61.970001, 60.52, 4-8-2009
0.26666666666666666, 0.7105263157894737,2.3400000000000034, -1.3200000000000003, -0.5200000000000031, -0.7599980000000031, 60.52, 59.240002, 4-9-2009
0.3333333333333333, 0.4782608695652174,3.0999979999999994, -0.7599980000000031, 0.9599990000000034, -1.619999, 59.240002, 58.580002, 4-10-2009
0.5714285714285714, 0.7307692307692307,2.899996999999999, -1.619999, -0.7800030000000007, 2.2800030000000007, 58.580002, 60.080002, 4-11-2009
0.36363636363636365, 0.64,3.3399959999999993, 2.2800030000000007, -1.5600019999999972, -2.5499989999999997, 60.080002, 55.970001, 4-12-2009
0.29411764705882354, 0.7096774193548387,2.850003000000001, -2.5499989999999997, -0.3700030000000041, 1.3100019999999972, 55.970001, 56.91, 4-13-2009
0.16666666666666666, 0.7142857142857143,2.1799999999999997, 1.3100019999999972, -0.16999799999999965, -0.38000100000000003, 56.91, 56.360001, 4-14-2009
0.07142857142857142, 0.5384615384615384,2.0599970000000027, -0.38000100000000003, 0.6399990000000031, 3.119999, 56.360001, 60.119999, 4-15-2009
0.2857142857142857, 0.6896551724137931,3.6600000000000037, 3.119999, 2.4799989999999994, 0.5700000000000003, 60.119999, 63.169998, 4-16-2009
0.08333333333333333, 0.41379310344827586,2.480004000000001, 0.5700000000000003, -1.7099989999999963, 0.9599989999999963, 63.169998, 62.419998, 4-17-2009
0.5, 0.7428571428571429,2.5499989999999997, 0.9599989999999963, -0.879997000000003, 1.8499980000000065, 62.419998, 63.389999, 4-18-2009
0.16666666666666666, 0.6774193548387096,2.869999, 1.8499980000000065, -0.029998000000006186, 2.379997000000003, 63.389999, 65.739998, 4-19-2009
0.4444444444444444, 0.6363636363636364,3.7099990000000034, 2.379997000000003, 0.33000199999999325, -2.5899999999999963, 65.739998, 63.48, 4-20-2009
0.2727272727272727, 0.5862068965517241,3.370003000000004, 2.57000399999999, 0.22999599999999987, 5.730003000000011, 66.080002, 72.040001, 5-1-2009
0.18181818181818182, 0.5483870967741935,5.880004999999997, 5.730003000000011, -0.3400040000000075, -0.6899949999999961, 72.040001, 71.010002, 5-2-2009
0.42857142857142855, 0.8214285714285714,3.2200009999999963, -0.6899949999999961, 1.8499989999999968, 4.669998000000007, 71.010002, 77.529999, 5-3-2009
0.16666666666666666, 0.6153846153846154,5.370002999999997, 4.669998000000007, 0.3000029999999896, -4.31000499999999, 77.529999, 73.519997, 5-4-2009
0.5, 0.7894736842105263,6.660004000000001, -4.31000499999999, 1.3700019999999995, 1.9800039999999939, 73.519997, 76.870003, 5-5-2009
0.2, 0.6410256410256411,3.230003999999994, 1.9800039999999939, -1.5400010000000037, -1.5999989999999968, 76.870003, 73.730003, 5-6-2009
0.13333333333333333, 0.6666666666666666,2.619995000000003, -1.5999989999999968, 1.2299959999999999, -1.7099989999999963, 73.730003, 73.25, 5-7-2009
0.3333333333333333, 0.65625,4.010002, -1.7099989999999963, -1.9499969999999962, -0.9800030000000106, 73.25, 70.32, 5-8-2009
0.1111111111111111, 0.56,3.4000019999999864, -0.9800030000000106, 0.0, 1.0400010000000037, 70.32, 71.360001, 5-9-2009
0.6666666666666666, 0.7777777777777778,2.75, 1.0400010000000037, -0.44000299999999015, -2.6699980000000068, 71.360001, 68.25, 5-10-2009
0.25, 0.5333333333333333,4.309997999999993, -2.6699980000000068, 0.9000020000000006, 1.9000010000000032, 68.25, 71.050003, 5-11-2009
0.23076923076923078, 0.6944444444444444,2.8199989999999957, 1.9000010000000032, 0.1399990000000031, 0.8299949999999967, 71.050003, 72.019997, 5-12-2009
0.0, 0.5384615384615384,2.360000999999997, 0.8299949999999967, 0.7400049999999965, -0.3199999999999932, 72.019997, 72.440002, 5-13-2009
0.3, 0.625,2.6399999999999864, -0.3199999999999932, -1.1600030000000032, -1.5299990000000037, 72.440002, 69.75, 5-14-2009
0.1111111111111111, 0.5925925925925926,2.4499970000000104, -1.5299990000000037, 0.5400010000000037, -1.0999989999999968, 69.75, 69.190002, 5-15-2009
0.45454545454545453, 0.8,1.7700040000000001, -1.0999989999999968, -2.950004000000007, 3.0299990000000037, 69.190002, 69.269997, 5-16-2009
0.42857142857142855, 0.7,4.0, 3.0299990000000037, 0.20000399999999274, -1.2000039999999927, 69.269997, 68.269997, 5-17-2009
0.25, 0.6785714285714286,2.4599989999999963, -1.2000039999999927, 0.8500059999999934, 3.489998, 68.269997, 72.610001, 5-18-2009
0.3333333333333333, 0.7142857142857143,4.7900009999999895, 3.489998, 0.8599999999999994, -0.27999899999998945, 72.610001, 73.190002, 5-19-2009
0.23076923076923078, 0.625,2.729996, 1.9800029999999964, -0.7200009999999963, 0.20999899999999627, 76.720001, 76.209999, 6-1-2009
0.07692307692307693, 0.4444444444444444,2.4700010000000105, 0.20999899999999627, -1.379997000000003, -2.260002, 76.209999, 72.57, 6-2-2009
0.6363636363636364, 0.782608695652174,3.5500029999999896, -2.260002, 0.9300000000000068, -0.29000100000000373, 72.57, 73.209999, 6-3-2009
0.5, 0.7777777777777778,2.5, -0.29000100000000373, 1.2799990000000037, -0.9799959999999999, 73.209999, 73.510002, 6-4-2009
0.3333333333333333, 0.631578947368421,2.5699989999999957, -0.9799959999999999, -1.7400049999999965, 1.9299999999999926, 73.510002, 73.699997, 6-5-2009
0.4, 0.5925925925925926,2.3300009999999958, 1.9299999999999926, 0.4300000000000068, 0.5200049999999976, 73.699997, 74.650002, 6-6-2009
0.14285714285714285, 0.6774193548387096,2.0599980000000073, 0.5200049999999976, 0.9099959999999925, -0.3099979999999931, 74.650002, 75.25, 6-7-2009
0.375, 0.7586206896551724,2.139999000000003, -0.3099979999999931, 0.23999799999999993, 1.5999979999999994, 75.25, 77.089996, 6-8-2009
0.4, 0.78125,3.3599999999999994, 1.5999979999999994, -0.5599969999999956, 1.0900039999999933, 77.089996, 77.620003, 6-9-2009
0.14285714285714285, 0.7297297297297297,2.1700060000000008, 1.0900039999999933, -1.3900000000000006, 0.019997000000003595, 77.620003, 76.25, 6-10-2009
0.125, 0.7096774193548387,2.9599990000000105, 0.019997000000003595, 0.5699999999999932, -2.9599989999999963, 76.25, 73.860001, 6-11-2009
0.375, 0.6,3.760002, -2.9599989999999963, 0.22000099999999634, -0.8300019999999932, 73.860001, 73.25, 6-12-2009
0.07142857142857142, 0.5238095238095238,2.8400040000000075, -0.8300019999999932, -0.02999900000000366, -1.120002999999997, 73.25, 72.099998, 6-13-2009
0.14285714285714285, 0.6538461538461539,2.4799950000000024, -1.120002999999997, 0.7799990000000037, -2.9599989999999963, 72.099998, 69.919998, 6-14-2009
0.2857142857142857, 0.5882352941176471,3.6699980000000068, -2.9599989999999963, -1.0700000000000074, -1.369995000000003, 69.919998, 67.480003, 6-15-2009
0.14285714285714285, 0.6176470588235294,2.3300009999999958, -1.369995000000003, 0.2699970000000036, -0.45999899999999627, 67.480003, 67.290001, 6-16-2009
0.18518518518518517, 0.6511627906976745,2.050003000000004, -0.45999899999999627, 0.22000099999999634, -0.1900020000000069, 67.290001, 67.32, 6-17-2009
0.0, 0.6206896551724138,1.5700000000000074, -0.1900020000000069, 0.3000030000000038, 1.009994000000006, 67.32, 68.629997, 6-18-2009
0.4, 0.4782608695652174,1.639999000000003, 1.009994000000006, -0.3199990000000099, -0.75, 68.629997, 67.559998, 6-19-2009
0.0, 0.5862068965517241,1.6900020000000069, -0.75, 0.3500060000000076, -0.9500050000000044, 67.559998, 66.959999, 6-20-2009
0.26666666666666666, 0.6486486486486487,2.039994000000007, -0.9500050000000044, -0.19000199999999268, 1.1500010000000032, 66.959999, 67.919998, 6-21-2009
0.5, 0.9117647058823529,2.800003000000004, -1.6999969999999962, -1.389999000000003, -1.4199990000000042, 67.040001, 64.230003, 7-1-2009
0.36363636363636365, 0.5853658536585366,1.9499970000000033, -1.4199990000000042, -2.130004999999997, 0.5300030000000007, 64.230003, 62.630001, 7-2-2009
0.2, 0.5294117647058824,1.4299999999999997, 0.5300030000000007, 0.1599999999999966, -2.2099989999999963, 62.630001, 60.580002, 7-3-2009
0.3333333333333333, 0.6666666666666666,2.3399999999999963, -2.2099989999999963, 0.05999700000000274, 1.130001, 60.580002, 61.77, 7-4-2009
0.1, 0.5757575757575758,2.0299990000000037, 1.130001, 0.5200009999999935, 0.32999800000000334, 61.77, 62.619999, 7-5-2009
0.4, 0.75,1.610000999999997, 0.32999800000000334, -1.0799980000000033, 0.9599990000000034, 62.619999, 62.5, 7-6-2009
0.0, 0.625,1.9700010000000034, 0.9599990000000034, -0.04999899999999968, 1.380001, 62.5, 63.830002, 7-7-2009
0.2727272727272727, 0.6363636363636364,2.4799990000000065, 1.380001, 0.6999970000000033, 0.1399990000000031, 63.830002, 64.669998, 7-8-2009
0.0625, 0.4634146341463415,1.4500009999999932, 0.1399990000000031, 0.7000049999999902, 1.1099999999999994, 64.669998, 66.480003, 7-9-2009
0.375, 0.6071428571428571,1.7400050000000107, 1.1099999999999994, -0.6000059999999934, 3.370002999999997, 66.480003, 69.25, 7-10-2009
0.3333333333333333, 0.6,3.9199979999999925, 3.370002999999997, -0.6100009999999969, 0.9499969999999962, 69.25, 69.589996, 7-11-2009
0.23076923076923078, 0.4666666666666667,2.0800020000000075, 0.9499969999999962, 0.870002999999997, 1.8400040000000075, 69.589996, 72.300003, 7-12-2009
0.6, 0.7142857142857143,2.0, 1.8400040000000075, 0.8399959999999993, -0.5500030000000038, 72.300003, 72.589996, 7-13-2009
0.47058823529411764, 0.6176470588235294,2.2900010000000037, -0.5500030000000038, -0.379997000000003, -0.8099969999999956, 72.589996, 71.400002, 7-14-2009
0.3, 0.6666666666666666,1.4700009999999963, -0.8099969999999956, 0.0, 2.4099959999999925, 71.400002, 73.809998, 7-15-2009
0.5294117647058824, 0.7254901960784313,2.7799990000000037, 2.4099959999999925, -0.29999599999999305, 1.1800000000000068, 73.809998, 74.690002, 7-16-2009
0.4166666666666667, 0.6470588235294118,1.4599990000000105, 1.1800000000000068, 0.15999599999999248, -0.5499949999999956, 74.690002, 74.300003, 7-17-2009
0.2, 0.6333333333333333,0.9599989999999963, -0.5499949999999956, -0.9700010000000105, 0.11000000000001364, 74.300003, 73.440002, 7-18-2009
0.18181818181818182, 0.5333333333333333,2.630004999999997, 0.11000000000001364, -1.1300040000000138, -1.4099959999999925, 73.440002, 70.900002, 7-19-2009
0.125, 0.4827586206896552,2.199996999999996, -1.4099959999999925, 1.5499949999999956, 0.45000500000000443, 70.900002, 72.900002, 7-20-2009
0.2, 0.5625,2.760002, 0.45000500000000443, -0.45000500000000443, 1.5800020000000075, 72.900002, 74.029999, 7-21-2009
0.25, 0.59375,2.4900050000000107, 1.4500050000000044, -0.5700000000000074, 1.369995000000003, 76.650002, 77.449997, 8-1-2009
0.2857142857142857, 0.6896551724137931,2.2799990000000037, 1.369995000000003, 0.09000400000000752, 0.47999599999999987, 77.449997, 78.019997, 8-2-2009
0.0, 0.56,2.0, 0.47999599999999987, 0.7700040000000001, -0.5700000000000074, 78.019997, 78.220001, 8-3-2009
0.3333333333333333, 0.4375,2.6400000000000006, -0.5700000000000074, 0.36999500000000296, -3.859993000000003, 78.220001, 74.730003, 8-4-2009
0.13333333333333333, 0.52,5.140000000000001, -3.859993000000003, -0.10999999999999943, 1.5799939999999992, 74.730003, 76.199997, 8-5-2009
0.2222222222222222, 0.5714285714285714,2.3599999999999994, 1.5799939999999992, -0.5099949999999893, -1.9300000000000068, 76.199997, 73.760002, 8-6-2009
0.2, 0.65,2.3199989999999957, -1.9300000000000068, -0.4100040000000007, 0.8400040000000075, 73.760002, 74.190002, 8-7-2009
0.42857142857142855, 0.6206896551724138,1.7099999999999937, 0.8400040000000075, 0.08999699999999677, 1.2900009999999895, 74.190002, 75.57, 8-8-2009
0.16666666666666666, 0.7307692307692307,1.5, 1.2900009999999895, 0.01999600000000612, -0.8999939999999924, 75.57, 74.690002, 8-9-2009
0.42857142857142855, 0.6129032258064516,1.889999000000003, -0.8999939999999924, -1.3500060000000076, -1.5, 74.690002, 71.839996, 8-10-2009
0.2727272727272727, 0.64,2.3199989999999957, -1.5, -0.05999699999999564, 0.5500029999999896, 71.839996, 72.330002, 8-11-2009
0.5, 0.6486486486486487,1.5500030000000038, 0.5500029999999896, -0.5699999999999932, 2.059997999999993, 72.330002, 73.82, 8-12-2009
0.2222222222222222, 0.627906976744186,3.480003999999994, 2.059997999999993, 0.05999700000000985, -0.3199990000000099, 73.82, 73.559998, 8-13-2009
0.5, 0.85,1.4100040000000007, -0.3199990000000099, 0.5900040000000075, 1.639999000000003, 73.559998, 75.790001, 8-14-2009
0.0, 0.6451612903225806,2.199996999999996, 1.639999000000003, 0.7699969999999894, -0.7299959999999999, 75.790001, 75.830002, 8-15-2009
0.25, 0.52,1.5899960000000135, -0.7299959999999999, 0.3399960000000135, -1.759994000000006, 75.830002, 74.410004, 8-16-2009
0.6666666666666666, 0.7254901960784313,2.6700060000000008, -1.759994000000006, -0.6600040000000007, 0.2300029999999964, 74.410004, 73.980003, 8-17-2009
0.4, 0.8076923076923077,1.619995000000003, 0.2300029999999964, -0.7300029999999964, -0.29000100000000373, 73.980003, 72.959999, 8-18-2009
0.2, 0.5714285714285714,1.6800010000000043, -0.29000100000000373, 0.9400030000000044, -0.6500020000000006, 72.959999, 73.25, 8-19-2009
0.16666666666666666, 0.7586206896551724,1.9300010000000043, -0.6500020000000006, -1.5, 0.25, 73.25, 72.0, 8-20-2009
0.16666666666666666, 0.6153846153846154,2.550003000000004, -1.119995000000003, 0.02999900000000366, -0.7300039999999939, 70.620003, 69.919998, 9-1-2009
0.1, 0.6451612903225806,1.1500020000000006, -0.7300039999999939, 0.870002999999997, -1.0299990000000037, 69.919998, 69.760002, 9-2-2009
0.375, 0.5384615384615384,1.360000999999997, -1.0299990000000037, -0.31000500000000386, 1.0200040000000001, 69.760002, 70.470001, 9-3-2009
0.0, 0.6363636363636364,2.0, 1.0200040000000001, 2.010002, 1.1599960000000067, 70.470001, 73.639999, 9-4-2009
0.3333333333333333, 0.7692307692307693,2.2099989999999963, 1.1599960000000067, 0.18000099999999009, 0.6200020000000137, 73.639999, 74.440002, 9-5-2009
0.18181818181818182, 0.6,2.120002999999997, 0.6200020000000137, 0.019996999999989384, 2.360000999999997, 74.440002, 76.82, 9-6-2009
0.11764705882352941, 0.5869565217391305,3.120002999999997, 2.360000999999997, 0.36000000000001364, -1.2300030000000106, 76.82, 75.949997, 9-7-2009
0.3333333333333333, 0.42857142857142855,2.7200010000000105, -1.2300030000000106, -0.7199939999999998, 1.859993000000003, 75.949997, 77.089996, 9-8-2009
0.25, 0.5555555555555556,2.3400039999999933, 1.859993000000003, 0.49000599999999395, 2.2799990000000037, 77.089996, 79.860001, 9-9-2009
0.42857142857142855, 0.7777777777777778,2.79999500000001, 2.2799990000000037, 0.6599960000000067, 2.710005999999993, 79.860001, 83.230003, 9-10-2009
0.3888888888888889, 0.6440677966101694,3.5199970000000036, 2.710005999999993, -0.19000199999999268, -0.47000100000001055, 83.230003, 82.57, 9-11-2009
0.25, 0.6111111111111112,2.3399969999999968, -0.47000100000001055, 0.5400010000000037, -1.25, 82.57, 81.860001, 9-12-2009
0.18181818181818182, 0.5,2.4000020000000006, -1.25, -1.5500030000000038, 0.9700010000000105, 81.860001, 81.279999, 9-13-2009
0.625, 0.7916666666666666,1.9700009999999963, 0.9700010000000105, 1.130004999999997, 1.619995000000003, 81.279999, 84.029999, 9-14-2009
0.1111111111111111, 0.7096774193548387,2.400001000000003, 1.619995000000003, 0.0, -1.8200000000000074, 84.029999, 82.209999, 9-15-2009
0.3333333333333333, 0.6060606060606061,2.3400040000000075, -1.8200000000000074, -0.15999599999999248, -2.0, 82.209999, 80.050003, 9-16-2009
0.25, 0.625,3.619995000000003, -2.0, -0.1900020000000069, -0.91999899999999, 80.050003, 78.940002, 9-17-2009
0.42857142857142855, 0.7391304347826086,2.5400010000000037, -0.91999899999999, 0.4099959999999925, 0.7799990000000037, 78.940002, 80.129997, 9-18-2009
0.3125, 0.6666666666666666,1.3399959999999993, 0.7799990000000037, -0.12999700000000303, 1.639999000000003, 80.129997, 81.639999, 9-19-2009
0.625, 0.8260869565217391,2.9399939999999987, 1.639999000000003, 0.6800009999999901, 1.1900020000000069, 81.639999, 83.510002, 9-20-2009
0.2727272727272727, 0.5925925925925926,2.6699979999999925, -2.5299989999999895, -1.3200000000000074, 1.0299990000000037, 81.050003, 80.760002, 10-1-2009
0.16666666666666666, 0.6785714285714286,1.9300000000000068, 1.0299990000000037, -0.010002000000000066, 1.760002, 80.760002, 82.510002, 10-2-2009
0.125, 0.6571428571428571,2.7799990000000037, 1.760002, 1.1400000000000006, 0.9299999999999926, 82.510002, 84.580002, 10-3-2009
0.25, 0.5806451612903226,1.81999900000001, 0.9299999999999926, -0.15000199999998642, 0.27999899999998945, 84.580002, 84.709999, 10-4-2009
0.21428571428571427, 0.6363636363636364,2.120002999999997, 0.27999899999998945, 0.5299990000000037, 4.450004000000007, 84.709999, 89.690002, 10-5-2009
0.2, 0.6923076923076923,5.0, 4.450004000000007, -0.5200040000000001, 0.4299999999999926, 89.690002, 89.599998, 10-6-2009
0.07692307692307693, 0.4827586206896552,2.650001000000003, 0.4299999999999926, 1.4599999999999937, -0.47999599999999987, 89.599998, 90.580002, 10-7-2009
0.1111111111111111, 0.4642857142857143,1.6300040000000138, -0.47999599999999987, 0.04999500000000978, -1.0, 90.580002, 89.629997, 10-8-2009
0.4, 0.7083333333333334,2.7299950000000024, -1.0, 1.3900000000000006, 0.4200050000000033, 89.629997, 91.440002, 10-9-2009
0.4444444444444444, 0.6666666666666666,1.9000020000000006, 0.4200050000000033, -0.58000100000001, 2.279998000000006, 91.440002, 93.139999, 10-10-2009
0.3333333333333333, 0.5652173913043478,2.629997000000003, 2.279998000000006, -0.22000099999999634, -0.11000000000001364, 93.139999, 92.809998, 10-11-2009
0.2, 0.4782608695652174,1.7799989999999895, -0.11000000000001364, -0.25, 1.7900000000000063, 92.809998, 94.349998, 10-12-2009
0.4, 0.76,1.9700010000000105, 1.7900000000000063, 0.16999900000000423, -0.1099930000000029, 94.349998, 94.410004, 10-13-2009
0.3333333333333333, 0.5142857142857142,1.9000020000000006, -0.1099930000000029, -0.7700049999999976, -0.6999969999999962, 94.410004, 92.940002, 10-14-2009
0.3, 0.5333333333333333,3.0100029999999975, -0.6999969999999962, -2.3400040000000075, 0.8499989999999968, 92.940002, 91.449997, 10-15-2009
0.3, 0.7083333333333334,2.3999940000000066, 0.8499989999999968, 0.6900020000000069, -2.9799950000000024, 91.449997, 89.160004, 10-16-2009
0.6, 0.8,3.9699930000000023, -2.9799950000000024, 0.1799919999999986, -2.4799950000000024, 89.160004, 86.860001, 10-17-2009
0.5, 0.7333333333333333,5.019996999999989, -2.4799950000000024, 0.8399959999999993, -0.9299999999999926, 86.860001, 86.769997, 10-18-2009
0.3, 0.5862068965517241,2.139999000000003, -0.9299999999999926, -0.6899950000000104, -1.8100049999999896, 86.769997, 84.269997, 10-19-2009
0.23076923076923078, 0.6333333333333333,2.939994999999996, -1.8100049999999896, 0.880004999999997, 0.6899939999999987, 84.269997, 85.839996, 10-20-2009
0.2857142857142857, 0.6363636363636364,1.9000010000000032, 0.6899939999999987, -0.029998000000006186, -4.149993999999992, 85.839996, 81.660004, 10-21-2009
0.5, 0.7222222222222222,2.939994999999996, 0.2300029999999964, -0.8199989999999957, 1.8499979999999994, 81.970001, 83.0, 11-1-2009
0.5, 0.8048780487804879,2.760002, 1.8499979999999994, 1.7300029999999964, 0.5700000000000074, 83.0, 85.300003, 11-2-2009
0.14285714285714285, 0.4583333333333333,2.7000050000000044, 0.5700000000000074, 0.5399929999999955, 2.1900030000000044, 85.300003, 88.029999, 11-3-2009
0.5, 0.7560975609756098,3.7200010000000105, 2.1900030000000044, 2.400001000000003, -0.08000200000000746, 88.029999, 90.349998, 11-4-2009
0.3333333333333333, 0.6666666666666666,2.879997000000003, -0.08000200000000746, -0.3399959999999993, 2.3900000000000006, 90.349998, 92.400002, 11-5-2009
0.2, 0.7391304347826086,2.569999999999993, 2.3900000000000006, -0.29000100000000373, -0.9300009999999901, 92.400002, 91.18, 11-6-2009
0.2222222222222222, 0.5185185185185185,2.740005999999994, -0.9300009999999901, 0.7799989999999895, -1.7099989999999963, 91.18, 90.25, 11-7-2009
0.375, 0.6071428571428571,2.5699989999999957, -1.7099989999999963, -0.3099979999999931, -1.08000100000001, 90.25, 88.860001, 11-8-2009
0.2857142857142857, 0.85,3.150001000000003, -1.08000100000001, -0.19000299999999015, -0.16999800000000675, 88.860001, 88.5, 11-9-2009
0.2, 0.7096774193548387,1.8400040000000075, -0.16999800000000675, 1.7900010000000037, 0.23999799999999993, 88.5, 90.529999, 11-10-2009
0.125, 0.5806451612903226,1.610000999999997, 0.23999799999999993, -0.40000200000000063, -0.14999400000000662, 90.529999, 89.980003, 11-11-2009
0.5555555555555556, 0.6086956521739131,1.4100040000000007, -0.14999400000000662, 0.29999600000000726, -1.5400010000000037, 89.980003, 88.739998, 11-12-2009
0.1, 0.6206896551724138,2.599998999999997, -1.5400010000000037, -0.7599950000000035, -1.0600049999999896, 88.739998, 86.919998, 11-13-2009
0.25, 0.75,2.25, -1.0600049999999896, -0.6500010000000032, 0.20000399999999274, 86.919998, 86.470001, 11-14-2009
0.26666666666666666, 0.6176470588235294,1.5400009999999895, 0.20000399999999274, 1.8300020000000075, -0.12000299999999697, 86.470001, 88.18, 11-15-2009
0.15384615384615385, 0.5806451612903226,1.7100059999999928, -0.12000299999999697, 0.18000099999999009, 0.1900020000000069, 88.18, 88.550003, 11-16-2009
0.09090909090909091, 0.5,1.7099989999999963, 0.1900020000000069, 0.15999599999999248, 1.0, 88.550003, 89.709999, 11-17-2009
0.2, 0.8,2.1499939999999924, 1.0, -3.2999949999999956, 0.8199989999999957, 89.709999, 87.230003, 11-18-2009
0.14285714285714285, 0.6774193548387096,2.4199979999999925, 0.8199989999999957, -1.0300060000000002, 0.29000100000000373, 87.230003, 86.489998, 11-19-2009
0.14285714285714285, 0.5806451612903226,2.0, 0.6800000000000068, -0.15000200000000063, -1.0500030000000038, 88.290001, 87.089996, 12-1-2009
0.2222222222222222, 0.6296296296296297,2.0900040000000075, -1.0500030000000038, -0.11999500000000296, -0.10999999999999943, 87.089996, 86.860001, 12-2-2009
0.0, 0.9285714285714286,1.7200019999999938, -0.10999999999999943, 1.3700019999999995, -1.1600030000000032, 86.860001, 87.07, 12-3-2009
0.2, 0.7428571428571429,4.5400009999999895, -1.1600030000000032, -0.2900009999999895, 0.48999799999999993, 87.07, 87.269997, 12-4-2009
0.15384615384615385, 0.5789473684210527,2.7900009999999895, 0.48999799999999993, -0.43999500000001035, -1.5800019999999932, 87.269997, 85.25, 12-5-2009
0.5, 0.6296296296296297,1.9600070000000045, -1.5800019999999932, 0.48999799999999993, -0.049995999999993046, 85.25, 85.690002, 12-6-2009
0.07142857142857142, 0.4666666666666667,2.4599989999999963, -0.049995999999993046, -0.09000400000000752, 1.0700000000000074, 85.690002, 86.669998, 12-7-2009
0.045454545454545456, 0.5846153846153846,1.9400030000000044, 1.0700000000000074, 0.3400039999999933, -0.9599989999999963, 86.669998, 86.050003, 12-8-2009
0.25, 0.6756756756756757,1.510002, -0.9599989999999963, 4.119995000000003, 0.22000099999999634, 86.050003, 90.389999, 12-9-2009
0.3, 0.5370370370370371,1.9899970000000025, 0.22000099999999634, -0.379997000000003, 1.7900010000000037, 90.389999, 91.800003, 12-10-2009
0.17647058823529413, 0.5576923076923077,2.059997999999993, 1.7900010000000037, 0.4299999999999926, 1.0799949999999967, 91.800003, 93.309998, 12-11-2009
0.2222222222222222, 0.6521739130434783,2.309997999999993, 1.0799949999999967, -0.09999899999999684, -0.6799999999999926, 93.309998, 92.529999, 12-12-2009
0.07692307692307693, 0.7169811320754716,3.189994999999996, -0.6799999999999926, 0.9899979999999999, -0.5700000000000074, 92.529999, 92.949997, 12-13-2009
0.4, 0.7777777777777778,1.8499979999999994, -0.5700000000000074, 0.880004999999997, 0.8600000000000136, 92.949997, 94.690002, 12-14-2009
0.2, 0.4782608695652174,1.4099960000000067, 0.8600000000000136, 0.8799979999999863, 2.1999970000000104, 94.690002, 97.769997, 12-15-2009
0.3333333333333333, 0.7272727272727273,2.949996999999996, 2.1999970000000104, 0.020004000000000133, 2.0999979999999994, 97.769997, 99.889999, 12-16-2009
0.36363636363636365, 0.5769230769230769,2.260002, 2.0999979999999994, 0.09000399999999331, 0.5999989999999968, 99.889999, 100.580002, 12-17-2009
0.10526315789473684, 0.5294117647058824,1.9299999999999926, 0.5999989999999968, 1.1800000000000068, -1.8300019999999932, 100.580002, 99.93, 12-18-2009
0.0, 0.48214285714285715,2.2300029999999964, -1.8300019999999932, 0.23999799999999993, -0.9000010000000032, 99.93, 99.269997, 12-19-2009
0.0, 0.56,2.3000029999999896, -0.9000010000000032, 0.010002000000000066, -0.47000100000001055, 99.269997, 98.809998, 12-20-2009
0.3333333333333333, 0.6521739130434783,1.2699969999999894, -0.47000100000001055, 0.010002000000000066, -1.5199969999999894, 98.809998, 97.300003, 12-21-2009
0.2647058823529412, 0.6024096385542169,1.200004000000007, 1.0299990000000037, -1.369995000000003, 0.14000000000000057, 100.379997, 99.150002, 1-1-2010
0.25, 0.6483516483516484,2.2099989999999963, 0.14000000000000057, -0.31000600000000134, 0.6400069999999971, 99.150002, 99.480003, 1-2-2010
0.06060606060606061, 0.5,2.020004, 0.6400069999999971, -0.5900039999999933, -0.3399959999999993, 99.480003, 98.550003, 1-3-2010
0.1111111111111111, 0.5324675324675324,1.610000999999997, -0.3399959999999993, -0.8200000000000074, 1.3200000000000074, 98.550003, 99.050003, 1-4-2010
0.35294117647058826, 0.7045454545454546,3.0, 1.3200000000000074, 0.5299989999999895, -1.4400029999999902, 99.050003, 98.139999, 1-5-2010
0.2222222222222222, 0.6764705882352942,2.7900009999999895, -1.4400029999999902, -2.379997000000003, -0.3400039999999933, 98.139999, 95.419998, 1-6-2010
0.21739130434782608, 0.6710526315789473,1.9399939999999987, -0.3400039999999933, -0.23999799999999993, 2.5800019999999932, 95.419998, 97.760002, 1-7-2010
0.10526315789473684, 0.6447368421052632,4.110000999999997, 2.5800019999999932, -0.08000199999999325, 0.3199999999999932, 97.760002, 98.0, 1-8-2010
0.17391304347826086, 0.589041095890411,1.260002, 0.3199999999999932, 0.0, -1.129997000000003, 98.0, 96.870003, 1-9-2010
0.4444444444444444, 0.6307692307692307,2.199996999999996, -1.129997000000003, -0.5500030000000038, 1.0299980000000062, 96.870003, 97.349998, 1-10-2010
0.15, 0.5384615384615384,1.5199960000000061, 1.0299980000000062, -1.5299980000000062, 0.5100020000000001, 97.349998, 96.330002, 1-11-2010
0.2631578947368421, 0.5538461538461539,1.2799990000000037, 0.5100020000000001, 0.23999799999999993, 0.01999600000000612, 96.330002, 96.589996, 1-12-2010
0.19047619047619047, 0.6428571428571429,2.2699969999999894, 0.01999600000000612, -0.3199989999999957, -2.219994, 96.589996, 94.050003, 1-13-2010
0.38095238095238093, 0.6538461538461539,3.4200050000000033, -2.219994, 0.8099979999999931, 0.10999999999999943, 94.050003, 94.970001, 1-14-2010
0.2727272727272727, 0.5714285714285714,1.5199960000000061, 0.10999999999999943, -1.010002, -0.8199999999999932, 94.970001, 93.139999, 1-15-2010
0.3181818181818182, 0.6212121212121212,2.6299979999999863, -0.8199999999999932, -0.9099960000000067, 0.1599960000000067, 93.139999, 92.389999, 1-16-2010
0.5833333333333334, 0.7413793103448276,3.720001999999994, 0.1599960000000067, 0.620002999999997, -1.5, 92.389999, 91.510002, 1-17-2010
0.3157894736842105, 0.6329113924050633,3.769996000000006, -1.5, 0.25999500000000353, -1.3499989999999968, 91.510002, 90.419998, 1-18-2010
0.1935483870967742, 0.4936708860759494,4.659996000000007, -1.3499989999999968, 0.8400039999999933, 4.290001000000004, 90.419998, 95.550003, 1-19-2010
0.25, 0.5714285714285714,4.410004000000001, 4.290001000000004, 0.2899929999999955, 1.1900030000000044, 95.550003, 97.029999, 2-1-2010
0.14285714285714285, 0.5,2.9599989999999963, 1.1900030000000044, -0.869995000000003, 1.0399929999999955, 97.029999, 97.199997, 2-2-2010
0.1, 0.45714285714285713,2.1600030000000032, 1.0399929999999955, -1.4299999999999926, -2.869995000000003, 97.199997, 92.900002, 2-3-2010
0.125, 0.6111111111111112,3.260002, -2.869995000000003, 0.0, -0.04000100000000373, 92.900002, 92.860001, 2-4-2010
0.16666666666666666, 0.6578947368421053,3.3599999999999994, -0.04000100000000373, -0.3199999999999932, -0.9599990000000105, 92.860001, 91.580002, 2-5-2010
0.0, 0.5217391304347826,2.860000999999997, -0.9599990000000105, 1.4499970000000104, 1.510002, 91.580002, 94.540001, 2-6-2010
0.0, 0.5925925925925926,2.9200060000000008, 1.510002, -3.9100040000000007, -2.389999000000003, 94.540001, 88.239998, 2-7-2010
0.3076923076923077, 0.625,4.209998999999996, -2.389999000000003, -0.3199999999999932, 3.1399999999999864, 88.239998, 91.059998, 2-8-2010
0.6666666666666666, 0.75,3.380004999999997, 3.1399999999999864, -1.5799949999999967, 1.5, 91.059998, 90.980003, 2-9-2010
0.2727272727272727, 0.59375,2.6400000000000006, 1.5, 1.6699990000000042, 0.16999799999999254, 90.980003, 92.82, 2-10-2010
0.5, 0.7692307692307693,1.6000059999999934, 0.16999799999999254, 0.2799980000000062, -0.23999700000000246, 92.82, 92.860001, 2-11-2010
0.36363636363636365, 0.41935483870967744,1.0799949999999967, -0.23999700000000246, -0.44000299999999015, 1.9199979999999925, 92.860001, 94.339996, 2-12-2010
0.2, 0.6363636363636364,2.7099989999999963, 1.9199979999999925, -0.4699930000000023, 0.7699960000000061, 94.339996, 94.639999, 2-13-2010
0.25, 0.4583333333333333,2.050003000000004, 0.7699960000000061, 0.5800019999999932, -3.1099999999999994, 94.639999, 92.110001, 2-14-2010
0.375, 0.6818181818181818,3.4199979999999925, -3.1099999999999994, -0.7099989999999963, -1.489998, 92.110001, 89.910004, 2-15-2010
0.0, 0.65625,2.349998999999997, -1.489998, 1.5, 1.2699960000000061, 89.910004, 92.68, 2-16-2010
0.3333333333333333, 0.5172413793103449,2.1600030000000032, 1.2699960000000061, -2.019996000000006, 2.5599969999999956, 92.68, 93.220001, 2-17-2010
0.6666666666666666, 0.8333333333333334,3.380004999999997, 2.5599969999999956, 0.3200000000000074, 0.5100020000000001, 93.220001, 94.050003, 2-18-2010
0.3333333333333333, 0.6724137931034483,1.3200000000000074, 0.1800010000000043, 0.5100020000000001, -0.33000200000000746, 94.650002, 94.830002, 3-1-2010
0.3076923076923077, 0.75,1.5699989999999957, -0.33000200000000746, 0.629997000000003, 0.3600009999999969, 94.830002, 95.82, 3-2-2010
0.2777777777777778, 0.7702702702702703,1.5400009999999895, 0.3600009999999969, 0.22000100000001055, -0.8400040000000075, 95.82, 95.199997, 3-3-2010
0.20833333333333334, 0.7549019607843137,2.1100000000000136, -0.8400040000000075, 0.75, 1.4300000000000068, 95.199997, 97.379997, 3-4-2010
0.11764705882352941, 0.6582278481012658,2.2099989999999963, 1.4300000000000068, -0.23999799999999993, 0.23000399999999388, 97.379997, 97.370003, 3-5-2010
0.3225806451612903, 0.640625,1.2200009999999963, 0.23000399999999388, -0.8500059999999934, 1.5300060000000002, 97.370003, 98.050003, 3-6-2010
0.2608695652173913, 0.6119402985074627,2.760002, 1.5300060000000002, -0.1600040000000007, 0.9499969999999962, 98.050003, 98.839996, 3-7-2010
0.08333333333333333, 0.6296296296296297,1.9599989999999963, 0.9499969999999962, -0.21999300000000233, -0.8400039999999933, 98.839996, 97.779999, 3-8-2010
0.1590909090909091, 0.638095238095238,1.8100050000000039, -0.8400039999999933, 1.0599969999999956, -1.259994000000006, 97.779999, 97.580002, 3-9-2010
0.2777777777777778, 0.6818181818181818,1.8600000000000136, -1.259994000000006, -0.26000200000000007, -0.4300009999999901, 97.580002, 96.889999, 3-10-2010
0.4411764705882353, 0.628099173553719,2.129997000000003, -0.4300009999999901, 0.5999989999999968, -1.0099950000000035, 96.889999, 96.480003, 3-11-2010
0.24390243902439024, 0.5597014925373134,1.5199970000000036, -1.0099950000000035, 0.2899940000000072, -0.9599990000000105, 96.480003, 95.809998, 3-12-2010
0.3380281690140845, 0.6714285714285714,2.2900010000000037, -0.9599990000000105, 0.24000500000001068, -2.770004, 95.809998, 93.279999, 3-13-2010
0.17567567567567569, 0.6060606060606061,4.040001000000004, -2.770004, -1.5800020000000075, 0.0, 93.279999, 91.699997, 3-14-2010
0.16666666666666666, 0.6491228070175439,4.020004999999998, 0.0, -0.9399949999999961, 0.7399979999999999, 91.699997, 91.5, 3-15-2010
0.3137254901960784, 0.700507614213198,3.0400010000000037, 0.7399979999999999, 0.2300029999999964, 2.4099960000000067, 91.5, 94.139999, 3-16-2010
0.2857142857142857, 0.5739644970414202,2.739998, 2.4099960000000067, -0.9899970000000025, -0.5800020000000075, 94.139999, 92.57, 3-17-2010
0.2222222222222222, 0.6272189349112426,2.349998999999997, -0.5800020000000075, 0.7200010000000105, -3.870002999999997, 92.57, 89.419998, 3-18-2010
0.3225806451612903, 0.628099173553719,4.790001000000004, -3.870002999999997, 0.25, -0.08000200000000746, 89.419998, 89.589996, 3-19-2010
0.30392156862745096, 0.6366782006920415,2.139999000000003, -0.08000200000000746, 2.0200049999999976, 1.3499979999999994, 89.589996, 92.959999, 3-20-2010
0.23728813559322035, 0.6,1.5299980000000062, 1.3499979999999994, -0.04000099999998952, 0.41999799999999254, 92.959999, 93.339996, 3-21-2010
0.358974358974359, 0.5961538461538461,1.4700010000000105, 0.41999799999999254, 0.1600040000000007, -0.5599979999999931, 93.339996, 92.940002, 3-22-2010
0.0, 0.5185185185185185,1.5999989999999968, 1.5500029999999896, 0.5800020000000075, 1.609993000000003, 95.580002, 97.769997, 4-1-2010
0.0, 0.43333333333333335,2.5299990000000037, 1.609993000000003, -0.1599960000000067, -0.23000399999999388, 97.769997, 97.379997, 4-2-2010
0.25, 0.6206896551724138,1.5100029999999975, -0.23000399999999388, 3.0400010000000037, 3.319999999999993, 97.379997, 103.739998, 4-3-2010
0.375, 0.6764705882352942,5.360000999999997, 3.319999999999993, 0.1900020000000069, 3.0299989999999895, 103.739998, 106.959999, 4-4-2010
0.16666666666666666, 0.8181818181818182,4.040001000000004, 3.0299989999999895, 0.370002999999997, -2.5600049999999896, 106.959999, 104.769997, 4-5-2010
0.14285714285714285, 0.4117647058823529,3.520004, -2.5600049999999896, -0.18999500000001035, 2.5999980000000136, 104.769997, 107.18, 4-6-2010
0.4, 0.5909090909090909,3.389999000000003, 2.5999980000000136, -0.22000100000001055, 0.41999800000000675, 107.18, 107.379997, 4-7-2010
0.2, 0.6666666666666666,3.230003999999994, 0.41999800000000675, 1.4500049999999902, 0.4599990000000105, 107.379997, 109.290001, 4-8-2010
0.0, 0.7307692307692307,2.1300040000000138, 0.4599990000000105, 0.0899959999999993, 1.120002999999997, 109.290001, 110.5, 4-9-2010
0.125, 0.59375,2.25, 1.120002999999997, -0.9400020000000069, -2.0899969999999968, 110.5, 107.470001, 4-10-2010
0.1111111111111111, 0.5714285714285714,3.059997999999993, -2.0899969999999968, -1.010002, 1.5299990000000037, 107.470001, 107.989998, 4-11-2010
0.45454545454545453, 0.56,2.099998999999997, 1.5299990000000037, 0.8899990000000031, 2.630004999999997, 107.989998, 111.510002, 4-12-2010
0.42857142857142855, 0.7368421052631579,2.7900010000000037, 2.630004999999997, -0.20000400000000695, 0.5600050000000039, 111.510002, 111.870003, 4-13-2010
0.5, 0.6842105263157895,1.7700040000000001, 0.5600050000000039, -0.9000020000000006, 2.0400010000000037, 111.870003, 113.010002, 4-14-2010
0.6, 0.6666666666666666,3.3599999999999994, 2.0400010000000037, -0.8599999999999994, 1.5699989999999957, 113.010002, 113.720001, 4-15-2010
0.1875, 0.5135135135135135,2.7900010000000037, 1.5699989999999957, 0.22999599999999987, -1.4699939999999998, 113.720001, 112.480003, 4-16-2010
0.3, 0.5517241379310345,2.4299999999999926, -1.4699939999999998, -0.4299999999999926, -3.4200060000000008, 112.480003, 108.629997, 4-17-2010
0.16666666666666666, 0.68,4.690003000000004, -3.4200060000000008, 0.7600020000000001, 0.02999900000000366, 108.629997, 109.419998, 4-18-2010
0.125, 0.5161290322580645,2.31999900000001, 0.02999900000000366, 0.7700040000000001, 1.0699999999999932, 109.419998, 111.260002, 4-19-2010
0.18181818181818182, 0.4090909090909091,2.41999899999999, 1.0699999999999932, 0.27999900000000366, 0.5800019999999932, 111.260002, 112.120003, 4-20-2010
0.18309859154929578, 0.7158671586715867,3.860000999999997, 0.7399979999999999, -4.209999999999994, 0.8900000000000006, 113.559998, 110.239998, 5-1-2010
0.2545454545454545, 0.6203208556149733,5.110000999999997, 0.8900000000000006, -2.239998, -2.8300019999999932, 110.239998, 105.169998, 5-2-2010
0.21666666666666667, 0.7048192771084337,4.670005000000003, -2.8300019999999932, -0.7699960000000061, -2.0299990000000037, 105.169998, 102.370003, 5-3-2010
0.2982456140350877, 0.64,8.900001000000003, -2.0299990000000037, -0.5500030000000038, -0.9800039999999939, 102.370003, 100.839996, 5-4-2010
0.2982456140350877, 0.7078651685393258,5.629997999999986, -0.9800039999999939, 1.8300020000000075, 3.819999999999993, 100.839996, 106.489998, 5-5-2010
0.2835820895522388, 0.6020942408376964,6.19999700000001, 3.819999999999993, -1.5099950000000035, -0.24000499999999647, 106.489998, 104.739998, 5-6-2010
0.3584905660377358, 0.7115384615384616,1.5600060000000013, -0.24000499999999647, 0.26000200000000007, 3.379997000000003, 104.739998, 108.379997, 5-7-2010
0.22448979591836735, 0.6294117647058823,3.739998, 3.379997000000003, -0.2699960000000061, -0.02999900000000366, 108.379997, 108.080002, 5-8-2010
0.23809523809523808, 0.5870646766169154,2.5100029999999975, -0.02999900000000366, -1.1399999999999864, -0.8500060000000076, 108.080002, 106.089996, 5-9-2010
0.2857142857142857, 0.7094594594594594,4.209998999999996, -0.8500060000000076, 0.0700080000000014, -2.9300010000000043, 106.089996, 103.230003, 5-10-2010
0.16279069767441862, 0.7083333333333334,6.3300020000000075, -2.9300010000000043, 1.7599950000000035, -2.1500020000000006, 103.230003, 102.839996, 5-11-2010
0.25, 0.7,3.4499970000000104, -2.1500020000000006, -0.3199989999999957, -0.2899940000000072, 102.839996, 102.230003, 5-12-2010
0.2727272727272727, 0.6339285714285714,4.640006999999997, -0.2899940000000072, -2.5900039999999933, -3.3499979999999994, 102.230003, 96.290001, 5-13-2010
0.3137254901960784, 0.6266666666666667,3.75, -3.3499979999999994, -1.9100040000000007, 6.209998999999996, 96.290001, 100.589996, 5-14-2010
0.2, 0.63125,7.380004999999997, 6.209998999999996, -0.9599989999999963, -2.269996000000006, 100.589996, 97.360001, 5-15-2010
0.09836065573770492, 0.645320197044335,3.809997999999993, -2.269996000000006, -3.860000999999997, 5.209998999999996, 97.360001, 98.709999, 5-16-2010
0.16417910447761194, 0.6509433962264151,5.5, 5.209998999999996, 1.3099980000000073, -0.27999900000000366, 98.709999, 99.739998, 5-17-2010
0.1917808219178082, 0.5272727272727272,2.4899970000000025, -0.27999900000000366, 2.2300029999999964, 4.540001000000004, 99.739998, 106.510002, 5-18-2010
0.32, 0.6983240223463687,5.270004, 4.540001000000004, -0.4800029999999964, -1.1900030000000044, 106.510002, 104.839996, 5-19-2010
0.24561403508771928, 0.6585365853658537,3.720001999999994, -1.1900030000000044, -1.25, -2.759994000000006, 104.839996, 100.830002, 5-20-2010
0.14285714285714285, 0.7058823529411765,4.400002000000001, -2.759994000000006, 1.2699960000000061, 5.650002000000001, 100.830002, 107.75, 6-1-2010
0.375, 0.6896551724137931,6.930000000000007, 5.650002000000001, -0.27999900000000366, 2.260002, 107.75, 109.730003, 6-2-2010
0.3, 0.75,4.790001000000004, 2.260002, -1.9299999999999926, -4.810005000000004, 109.730003, 102.989998, 6-3-2010
0.1, 0.6,8.659995999999992, -4.810005000000004, 0.5699999999999932, -2.41999899999999, 102.989998, 101.139999, 6-4-2010
0.4444444444444444, 0.7241379310344828,6.819999999999993, -2.41999899999999, 1.370002999999997, 2.849998999999997, 101.139999, 105.360001, 6-5-2010
0.2, 0.5161290322580645,4.690003000000004, 2.849998999999997, 0.8199990000000099, -2.3700020000000137, 105.360001, 103.809998, 6-6-2010
0.09090909090909091, 0.5,5.450005000000004, -2.3700020000000137, 2.010002, 2.9499970000000104, 103.809998, 108.769997, 6-7-2010
0.75, 0.56,3.050003000000004, 2.9499970000000104, -0.7799990000000037, 1.870002999999997, 108.769997, 109.860001, 6-8-2010
0.2857142857142857, 0.696969696969697,2.9600070000000045, 1.870002999999997, 1.08000100000001, -1.9900050000000107, 109.860001, 108.949997, 6-9-2010
0.2, 0.5555555555555556,3.5200049999999976, -1.9900050000000107, 1.6600040000000007, -0.25, 108.949997, 110.360001, 6-10-2010
0.2, 0.5555555555555556,2.1800010000000043, -0.25, -0.91999899999999, 0.9499969999999962, 110.360001, 110.389999, 6-11-2010
0.375, 0.6333333333333333,2.6899950000000104, 0.9499969999999962, 0.02999900000000366, -0.36000000000001364, 110.389999, 110.059998, 6-12-2010
0.0, 0.55,2.6200019999999995, -0.36000000000001364, -0.05999799999999311, 0.22000099999999634, 110.059998, 110.220001, 6-13-2010
0.5, 0.6896551724137931,1.5700000000000074, 0.22000099999999634, 1.7799990000000037, -1.389999000000003, 110.220001, 110.610001, 6-14-2010
0.5, 0.7586206896551724,4.380004999999997, -1.389999000000003, 0.0, -4.160004000000001, 110.610001, 106.449997, 6-15-2010
0.1, 0.72,5.540000000000006, -4.160004000000001, 0.12000299999999697, 0.2699960000000061, 106.449997, 106.839996, 6-16-2010
0.5, 0.8,2.6599960000000067, 0.2699960000000061, -1.0199960000000061, -1.2300039999999939, 106.839996, 104.589996, 6-17-2010
0.18181818181818182, 0.5625,4.239998, -1.2300039999999939, 1.6500020000000006, 3.5400010000000037, 104.589996, 109.779999, 6-18-2010
0.2, 0.5185185185185185,5.359999999999999, 3.5400010000000037, -0.8399969999999968, -3.520004, 109.779999, 105.419998, 6-19-2010
0.0, 0.6842105263157895,4.629997999999986, -3.520004, -2.0899960000000135, -3.0900039999999933, 105.419998, 100.239998, 6-20-2010
0.5, 0.75,4.230002999999996, -3.0900039999999933, 0.020004000000000133, -1.889999000000003, 100.239998, 98.370003, 6-21-2010
0.3, 0.6557377049180327,4.200003999999993, 0.5600049999999896, -0.38999999999998636, -0.3500060000000076, 99.080002, 98.339996, 7-1-2010
0.3333333333333333, 0.627906976744186,3.0800020000000075, -0.3500060000000076, 2.0, -0.48999799999999993, 98.339996, 99.849998, 7-2-2010
0.7, 0.8620689655172413,3.9299999999999926, -0.48999799999999993, 0.2700049999999976, 3.680000000000007, 99.849998, 103.800003, 7-3-2010
0.08333333333333333, 0.5555555555555556,4.589996999999997, 3.680000000000007, 1.0799939999999992, 1.3400039999999933, 103.800003, 106.220001, 7-4-2010
0.5555555555555556, 0.7272727272727273,3.050003000000004, 1.3400039999999933, -0.33000199999999325, -0.3199990000000099, 106.220001, 105.57, 7-5-2010
0.125, 0.6206896551724138,2.639999000000003, -0.3199990000000099, -0.2699969999999894, 0.23999799999999993, 105.57, 105.540001, 7-6-2010
0.3333333333333333, 0.6551724137931034,1.9199979999999925, 0.23999799999999993, 1.4499969999999962, -0.18000000000000682, 105.540001, 106.809998, 7-7-2010
0.42857142857142855, 0.6153846153846154,1.8099979999999931, -0.18000000000000682, -0.6999969999999962, 0.5299980000000062, 106.809998, 106.639999, 7-8-2010
0.5333333333333333, 0.6538461538461539,3.3099969999999956, 0.5299980000000062, 0.3600009999999969, -0.8099979999999931, 106.639999, 106.190002, 7-9-2010
0.75, 0.7857142857142857,3.069999999999993, -0.8099979999999931, -1.06999900000001, -2.8400039999999933, 106.190002, 102.279999, 7-10-2010
0.1111111111111111, 0.5185185185185185,4.400002000000001, -2.8400039999999933, 0.40000100000000316, -0.6699980000000068, 102.279999, 102.010002, 7-11-2010
0.2727272727272727, 0.5217391304347826,2.849998999999997, -0.6699980000000068, -1.5299990000000037, 3.6699990000000042, 102.010002, 104.150002, 7-12-2010
0.5, 0.8064516129032258,4.479996, 3.6699990000000042, 0.379997000000003, -2.110000999999997, 104.150002, 102.419998, 7-13-2010
0.2222222222222222, 0.4838709677419355,3.1099999999999994, -2.110000999999997, 1.4299999999999926, -0.6500010000000032, 102.419998, 103.199997, 7-14-2010
0.42857142857142855, 0.71875,1.9700009999999963, -0.6500010000000032, -0.4099959999999925, -0.4599990000000105, 103.199997, 102.330002, 7-15-2010
0.1111111111111111, 0.39285714285714285,2.620002999999997, -0.4599990000000105, -0.12000299999999697, 1.510002, 102.330002, 103.720001, 7-16-2010
0.5, 0.8,2.2099990000000105, 1.510002, 0.14000000000000057, -3.300003000000004, 103.720001, 100.559998, 7-17-2010
0.5714285714285714, 0.782608695652174,4.83000100000001, -3.300003000000004, 0.3700020000000137, -0.3700020000000137, 100.559998, 100.559998, 7-18-2010
0.6, 0.7407407407407407,1.8400039999999933, -0.3700020000000137, 1.1700050000000033, -1.1500010000000032, 100.559998, 100.580002, 7-19-2010
0.16666666666666666, 0.4230769230769231,2.5499960000000073, -1.1500010000000032, -1.0, -2.0800019999999932, 100.580002, 97.5, 7-20-2010
0.25, 0.6176470588235294,3.7900000000000063, 3.200004000000007, -0.20999899999999627, -0.6000060000000076, 102.510002, 101.699997, 8-1-2010
0.25, 0.65625,1.6500010000000032, -0.6000060000000076, 0.3600009999999969, 0.9400020000000069, 101.699997, 103.0, 8-2-2010
0.4166666666666667, 0.6774193548387096,2.2300029999999964, 0.9400020000000069, -0.75, 0.1900020000000069, 103.0, 102.440002, 8-3-2010
